svm_type c_svc
kernel_type rbf
gamma 0.1
nr_class 2
total_sv 5141
rho -0.778912
label 0 1
nr_sv 2661 2480
SV
0.04448516322132801 1:-0.83961682 2:-0.79444397 3:-0.59181582 4:6.2394817 5:-2.3805533 6:-10.2623 7:-5.6226935 8:0.26537713 9:3.9318152 10:4.8135148 
1 1:-0.60917966 2:-0.73452452 3:-0.88011125 4:-0.64579377 5:-0.87315401 6:-1.0115073 7:-1.150436 8:-0.35232403 9:-1.2272181 10:-1.1338082 
0.2013333076268907 1:-0.66261782 2:-0.68201971 3:-1.215267 4:-0.14229593 5:0.51308576 6:-4.9667756 7:-4.1284059 8:-4.1445888 9:-4.3257626 10:-2.6416447 
0.01158088320755578 1:-1.2325525 2:-1.3180153 3:-0.20605814 4:6.2847019 5:0.60047469 6:-6.4983252 7:-5.0085662 8:-1.6684459 9:0.83131261 10:2.1084275 
1 1:0.7990459 2:0.8533697 3:0.13776395 4:-0.12307784 5:-0.22782342 6:0.97610198 7:-0.089870218 8:-1.0189538 9:-0.17619263 10:-0.17999154 
0.02124548107199519 1:0.53532756 2:0.34389351 3:2.7580222 4:6.4511138 5:-1.7266793 6:-8.120263 7:-4.4780514 8:-1.885134 9:0.89065928 10:2.3386302 
1 1:-1.3631172 2:-1.3506022 3:-1.1517641 4:-0.66977767 5:0.35482645 6:2.0217669 7:0.29865932 8:-1.3216733 9:-1.2326647 10:-0.30782748 
0.1508064407596347 1:-1.1675561 2:-1.1802115 3:-1.061615 4:-0.96447064 5:1.8746848 6:10.891457 7:8.3341597 8:-0.92712986 9:-2.2095433 10:-2.1997175 
1 1:0.25850057 2:0.27427497 3:-0.065033839 4:0.5564467 5:-1.0209848 6:-1.7903761 7:-0.40470472 8:0.082682981 9:0.42086715 10:1.2297828 
1 1:-0.19511383 2:-0.19091295 3:-0.17141663 4:-0.44367546 5:-1.2779735 6:3.5738515 7:-1.3666517 8:0.32576137 9:0.18536203 10:0.85659442 
1 1:0.29430853 2:0.29931371 3:0.51828559 4:1.7179054 5:1.318624 6:2.8783854 7:0.72533242 8:1.5285901 9:1.0588099 10:1.1733384 
1 1:-0.68190107 2:-0.68015378 3:-0.60429459 4:-1.3416368 5:-0.74540004 6:-1.8855918 7:-1.6153308 8:-0.64537342 9:-0.61666239 10:-1.0559366 
1 1:-0.42435125 2:-0.42703763 3:-0.46144534 4:0.01578992 5:0.91138512 6:-1.5720914 7:-0.48571952 8:-0.098009145 9:0.16510741 10:0.78393203 
0.07685913534382856 1:2.3997691 2:2.3613657 3:4.0693131 4:3.4582903 5:-0.054504771 6:-6.2140841 7:-1.8985568 8:-0.05867671 9:1.9471644 10:4.6722579 
0.02119837959744919 1:0.94963909 2:0.87504475 3:2.2404146 4:4.7836089 5:3.1185551 6:-7.2946986 7:-4.6064848 8:0.4565878 9:2.3297147 10:5.2068643 
0.1696252757182169 1:-4.1701076 2:-4.3422198 3:-4.5780087 4:-0.21615997 5:-0.21666538 6:-0.71898448 7:-0.50002075 8:0.085375105 9:0.31397749 10:0.85505533 
0.2089363155141725 1:-1.5455308 2:-1.3918865 3:2.6226028 4:3.5488277 5:6.7899546 6:8.7226708 7:6.8052269 8:3.5087815 9:-1.4939656 10:-1.3745774 
0.1912234768880167 1:-1.9437845 2:-2.0260519 3:-1.0887323 4:0.60613398 5:-4.1174404 6:-5.5598739 7:-1.0448216 8:5.1222002 9:4.8501075 10:4.1046973 
1 1:0.39097083 2:0.35107109 3:0.95367271 4:0.36212651 5:-0.7650705 6:-1.3862701 7:-0.64380887 8:0.74576181 9:0.42432396 10:0.61696363 
0.05874448442636296 1:-0.41030989 2:-0.40268687 3:-0.33220017 4:3.4694675 5:2.2108854 6:-8.1560559 7:-4.528311 8:-1.1692708 9:0.52205965 10:2.4901856 
1 1:-0.59605398 2:-0.57275562 3:0.052272186 4:-0.97574146 5:-0.98436281 6:5.1852059 7:-1.9263594 8:-2.1284236 9:-1.8284678 10:0.20910909 
0.2226841983209431 1:1.5602461 2:1.6412211 3:1.6810956 4:0.047866304 5:-3.6325541 6:-6.8589275 7:-5.9678618 8:-3.8786486 9:-0.31970842 10:5.3622122 
1 1:1.2647017 2:1.3679302 3:0.85559504 4:0.6578395 5:0.73652092 6:1.7476503 7:1.0914704 8:0.62626034 9:1.3916289 10:1.4898517 
1 1:-0.39935271 2:-0.39629923 3:0.60536944 4:-0.42419875 5:-0.89798488 6:5.219638 7:-1.9699567 8:-2.2480694 9:-2.099175 10:-0.55330181 
0.009845815448318083 1:3.5360625 2:3.6227314 3:2.0139537 4:0.22723153 5:-0.24937719 6:-3.7128354 7:-2.4676523 8:-0.68315286 9:0.91299563 10:3.4101664 
0.1040002425170155 1:-0.98122316 2:-1.0054912 3:-0.90533187 4:-0.92882103 5:7.6560332 6:11.220992 7:2.1777303 8:-1.8701858 9:-2.7781743 10:-2.9964488 
0.05149323687309595 1:-1.0459536 2:-0.9853798 3:-1.066048 4:5.7074665 5:0.21293574 6:-9.2400231 7:-5.1304589 8:0.6938918 9:3.1398722 10:4.2164654 
0.02775443734115185 1:-1.1893607 2:-1.1699581 3:-1.2208425 4:3.1311985 5:-1.422688 6:-7.4784263 7:-4.2583261 8:0.033545561 9:1.2957329 10:2.1305387 
0.1001784861220661 1:0.52572443 2:0.53703728 3:0.42365261 4:0.58596846 5:0.19911226 6:-11.034981 7:-5.9082247 8:2.4819755 9:6.1729772 10:7.8277267 
0.01061571334239833 1:-0.42705281 2:-0.40147504 3:-0.10247212 4:1.1681547 5:4.3028483 6:-7.192705 7:-5.3536551 8:-1.6417229 9:0.32884022 10:2.7786541 
0.02645639802656654 1:-1.215184 2:-1.2244102 3:-0.51233122 4:1.8645279 5:2.3437721 6:-8.2067605 7:-4.090061 8:-0.49398256 9:1.6721519 10:4.1533771 
0.01681616270734121 1:0.80325845 2:0.61771429 3:2.7273662 4:4.890038 5:-3.6491929 6:-9.3578239 7:-5.1432194 8:-1.7207869 9:1.3371515 10:3.0446407 
0.007933446568147496 1:-0.9345932 2:-0.90241494 3:-0.66789356 4:6.5640995 5:1.2569075 6:-6.6677835 7:-4.7527251 8:-0.57085132 9:2.4768239 10:3.2903343 
1 1:-1.4184896 2:-1.4139925 3:-1.9674664 4:-1.9995348 5:-0.76055449 6:1.6537811 7:1.5652362 8:0.6316551 9:1.9664632 10:0.76923056 
1 1:0.27006214 2:0.36412871 3:0.45323321 4:-0.5335541 5:0.18398843 6:0.43960669 7:-0.095133451 8:-0.040789308 9:-0.43986616 10:1.7942482 
1 1:-0.36005574 2:-0.35700729 3:0.42674021 4:-0.65739786 5:-1.6347926 6:5.3527138 7:-1.1029044 8:-2.265814 9:-2.5687744 10:-1.3138135 
0.09789409861715655 1:-2.1018231 2:-2.0671976 3:-2.3629569 4:-2.2043819 5:-4.2761446 6:-5.4206487 7:-2.9291869 8:2.9552694 9:5.5906262 10:3.3386811 
0.1489925439693797 1:-0.56107986 2:-0.45710061 3:-0.84314131 4:7.1956066 5:-1.230449 6:-2.4618358 7:-2.2060543 8:-0.98411729 9:1.2615399 10:2.0541269 
0.009048200736002619 1:-1.4352715 2:-1.3968422 3:-1.2003387 4:6.5626591 5:0.95930941 6:-6.9814993 7:-5.0073592 8:-1.2832403 9:1.5183758 10:3.3967662 
0.03023430235910841 1:-1.1399425 2:-1.1056943 3:-1.0566779 4:7.2736778 5:1.2589233 6:-8.2499969 7:-5.1927063 8:-1.0014351 9:1.6275246 10:3.1641792 
0.04948623099331736 1:2.5262314 2:2.5535135 3:4.1671027 4:2.5996327 5:-1.7030625 6:-5.0938978 7:-1.7014543 8:-0.43664117 9:1.7018319 10:4.2797922 
0.04221542057783752 1:-0.5995301 2:-0.59059861 3:-0.38830164 4:7.0535362 5:-0.48469388 6:-10.192932 7:-6.1338432 8:-1.5298296 9:1.7196528 10:3.8447305 
0.08215203497880398 1:1.5645548 2:1.5736074 3:0.81988487 4:-0.0085709107 5:-0.3220913 6:-8.1010893 7:-2.8935507 8:0.45927729 9:2.4591476 10:4.7287607 
0.0556760540881082 1:-0.70818529 2:-0.71486203 3:-0.55257267 4:-0.73368802 5:3.5368207 6:11.478566 7:5.1892418 8:-1.4506424 9:-2.1824684 10:-2.2838799 
0.1310991104959807 1:-0.39845052 2:-0.58484069 3:2.0799039 4:5.9597382 5:3.5478678 6:-2.6997277 7:-2.5705388 8:-2.3825007 9:-2.0029468 10:-1.3569317 
0.05549204931965895 1:-0.38476281 2:-0.8897432 3:2.9765972 4:4.748412 5:-3.3522235 6:-8.352224 7:-4.8575091 8:-1.9516155 9:1.1134099 10:2.7271127 
0.1756019317412325 1:-0.43701221 2:-0.42053286 3:-2.5916624 4:-3.4884408 5:-4.9967809 6:-6.3101528 7:-2.9450603 8:1.8108962 9:-1.6801114 10:-1.1596016 
1 1:-0.6435853 2:-0.66517081 3:0.20768875 4:-0.81947345 5:-1.992655 6:5.5958707 7:-1.1218351 8:-2.3348397 9:-2.2092612 10:-0.45407842 
0.007416379100222708 1:-0.90749737 2:-0.92901234 3:-0.89573228 4:-0.50835018 5:9.2047483 6:9.6841324 7:-0.44673095 8:-2.1230129 9:-2.9799854 10:-3.360014 
1 1:-0.60432393 2:-0.59886934 3:-0.50061469 4:-0.53154128 5:0.45054267 6:4.0926264 7:2.1165696 8:-0.33082391 9:3.0925712 10:0.5497428 
0.1025128264861883 1:-1.0660458 2:-1.0785388 3:-0.98017102 4:0.70638834 5:10.350669 6:8.8425352 7:-0.77332612 8:-2.2408839 9:-2.9648129 10:-3.071898 
0.1913399528047986 1:-5.7264874 2:-5.7308923 3:-4.546789 4:-5.0794841 5:-4.6970631 6:-4.946136 7:-3.8317888 8:-2.7714276 9:1.0334612 10:2.2381714 
0.02650977392377345 1:-1.0131434 2:-1.5532474 3:3.4124211 4:8.7698483 5:-1.7684994 6:-8.9938569 7:-5.3978148 8:-1.0322878 9:1.7011231 10:3.0010983 
1 1:-0.41321977 2:-0.4051592 3:-1.0602733 4:-1.1567762 5:-0.68140629 6:1.2783393 7:0.81054213 8:0.81871453 9:0.91937185 10:1.0088544 
1 1:-1.6350504 2:-1.5952033 3:-1.2417444 4:-0.87630471 5:0.29700841 6:1.9788394 7:0.17586199 8:-1.3672472 9:-1.1672114 10:-0.18379283 
0.7458934121937837 1:-1.7848449 2:-1.7397871 3:-1.3114367 4:-0.8564959 5:0.40897263 6:2.218163 7:0.43816434 8:-1.2423978 9:-1.0907532 10:0.090187546 
1 1:-0.28499803 2:-0.20374217 3:0.16477871 4:-0.88867623 5:-0.724547 6:5.5779064 7:-1.4688812 8:-2.3173201 9:-2.3166702 10:-1.0176672 
1 1:-0.028743152 2:-0.015850103 3:0.043597906 4:-0.35193481 5:-0.10690036 6:-0.38376948 7:0.16363573 8:0.058979241 9:0.027581738 10:0.20303356 
0.09510813920752755 1:0.44836027 2:0.52304995 3:1.4855684 4:3.0230041 5:3.3049154 6:2.0963767 7:0.33314495 8:-0.10677738 9:-0.089449867 10:-0.62308757 
1 1:-0.070256637 2:-0.077943203 3:-0.41071304 4:-0.6779247 5:-0.59477008 6:-0.42339642 7:-0.1174216 8:-0.12340426 9:-0.66272484 10:-0.65405507 
0.3396564378595045 1:0.092138891 2:0.063076832 3:-1.6729423 4:-1.7000978 5:2.9249513 6:5.447024 7:4.7628457 8:3.139793 9:2.0312963 10:1.2970994 
1 1:0.053430646 2:0.02729442 3:-0.038065128 4:0.091505063 5:0.22475482 6:0.97974969 7:0.025500495 8:-0.098243037 9:-0.19157533 10:0.73381531 
1 1:0.19474835 2:0.16711119 3:-0.6432113 4:-0.40936827 5:0.67292148 6:-0.86131683 7:-0.27171534 8:-0.095859787 9:-0.21916396 10:-0.089934171 
0.9109752527912954 1:-0.37383111 2:-0.38516481 3:-0.26054202 4:-0.023570147 5:1.1142587 6:3.4442539 7:0.94784717 8:-0.63347352 9:-0.72513815 10:-0.64885345 
1 1:-0.3257703 2:-0.3869926 3:0.52987146 4:-0.64950628 5:-1.2708162 6:2.184066 7:-0.20246368 8:-1.0676644 9:-0.9921839 10:-1.3421197 
1 1:-0.94962798 2:-0.95003573 3:-1.6229795 4:-1.7108858 5:-0.94039846 6:-3.3310299 7:-0.23791087 8:-0.019043684 9:1.3066517 10:0.8121056 
1 1:-0.55386404 2:-0.56485994 3:0.33512634 4:-0.75750603 5:-1.7934373 6:4.7158155 7:-1.0803244 8:-2.0191458 9:-2.4109925 10:-1.0830621 
1 1:-0.56605785 2:-0.57397754 3:-0.30506774 4:0.22425934 5:-0.60874531 6:0.16928028 7:-0.19053279 8:0.25642075 9:-0.76984392 10:-0.79390888 
0.02453329877572743 1:0.23611832 2:0.20568309 3:0.25636951 4:1.2068207 5:-0.70205629 6:-9.7591251 7:-6.2827546 8:1.0252262 9:3.3608287 10:6.4701498 
0.05404396195804285 1:0.11382411 2:-0.17868105 3:2.5078111 4:7.8012567 5:-2.8193922 6:-10.468412 7:-5.9840989 8:-1.4415375 9:1.6298875 10:2.9408001 
1 1:-0.67142442 2:-0.6383113 3:-0.870273 4:-1.4983933 5:-1.8919296 6:-2.1899857 7:-1.1443598 8:0.18530118 9:-1.3248215 10:-0.34624549 
1 1:-1.5518156 2:-1.5387435 3:-1.3860965 4:-0.98282422 5:0.042876735 6:1.9955945 7:0.4111279 8:-1.416846 9:-1.360205 10:-0.27938655 
0.02251306269323481 1:-0.9029959 2:-0.85653616 3:-0.9047879 4:5.2912059 5:0.6331484 6:-6.695793 7:-4.6501233 8:-1.2924113 9:1.8008219 10:4.5930504 
1 1:-1.0595488 2:-1.1123796 3:-1.1212049 4:-1.0871682 5:-2.9351627 6:7.7943651 7:-0.056633133 8:-1.5479506 9:-1.10043 10:-0.49751909 
1 1:-0.8523939 2:-0.84969139 3:-0.9059037 4:-0.33340484 5:0.22359524 6:1.7028238 7:0.99934755 8:-0.31026387 9:0.15886482 10:-0.076047208 
0.6769956131356187 1:0.30377598 2:0.30510687 3:-0.085388275 4:-0.42247907 5:0.46895647 6:1.3500704 7:0.57914401 8:0.75734597 9:0.40038929 10:-5.5827266 
0.1941277717092022 1:-1.1598731 2:-1.2410923 3:-0.65742205 4:1.4149824 5:4.6960079 6:8.7342209 7:6.3566501 8:1.3151163 9:2.3329947 10:0.15277117 
1 1:0.33533188 2:0.32541224 3:0.32710342 4:0.29859593 5:0.47023972 6:1.180225 7:0.20234489 8:-0.12490749 9:-0.21171264 10:-0.7816548 
0.2129746491914265 1:1.4373124 2:1.4708071 3:-0.66889043 4:-1.5222732 5:-1.4532097 6:2.386452 7:11.559029 8:8.2505406 9:-2.9473507 10:-3.8710776 
1 1:0.37083593 2:0.31548269 3:-0.29544995 4:-0.16883453 5:-0.11914363 6:0.80085362 7:0.0063448024 8:-0.17975062 9:-0.20185137 10:0.83688281 
0.01303358942724698 1:-0.56866463 2:-0.5399976 3:-0.54231338 4:7.2695102 5:1.5440678 6:-7.9724583 7:-5.2456277 8:-1.2708935 9:1.3304097 10:3.0424544 
0.1024791676261852 1:0.7129457 2:0.50263654 3:2.3202699 4:5.0531437 5:-4.7284537 6:-10.062131 7:-5.5035758 8:-1.5116 9:1.887851 10:3.7395708 
1 1:-0.68176671 2:-0.6674604 3:0.22166106 4:-0.83548373 5:-1.3321158 6:5.6883649 7:-1.7788375 8:-2.3345487 9:-2.5288316 10:-1.0120451 
0.1003841933633141 1:-0.72723538 2:-1.0928831 3:2.5004077 4:9.8515855 5:-0.63873311 6:-8.5777705 7:-5.1147038 8:-0.97395358 9:1.2262467 10:3.0395281 
1 1:-0.47264538 2:-0.50261816 3:-0.020693639 4:0.33176289 5:1.1056969 6:2.0402505 7:1.2505275 8:0.67298586 9:0.22958322 10:0.049634332 
1 1:-0.096648409 2:-0.15746119 3:0.41568226 4:-0.027064345 5:-0.78140238 6:2.4980345 7:0.23858711 8:-0.65297136 9:-0.59960634 10:-0.65449464 
0.2097796769967577 1:-3.3568618 2:-3.4460543 3:-0.82213422 4:0.70952815 5:2.9963034 6:6.6155976 7:5.6829808 8:4.3040491 9:4.1205572 10:3.94904 
0.0258238197837599 1:-0.96396109 2:-0.98472952 3:-0.90651273 4:-0.44400152 5:8.7439418 6:10.19346 7:0.52857694 8:-1.9792715 9:-2.6183997 10:-2.5929142 
1 1:-0.53965437 2:-0.54904653 3:-0.5522622 4:-0.37871604 5:-0.67230014 6:6.595638 7:0.60698858 8:-0.57967404 9:-0.30646672 10:3.7220998 
1 1:-0.26506402 2:-0.22693356 3:0.16478326 4:-0.7032136 5:-0.95998095 6:6.0988511 7:-1.5623653 8:-2.1509934 9:-2.1935391 10:-0.76093013 
0.2222704282288026 1:1.9981396 2:1.9773505 3:2.3609661 4:2.4413833 5:3.1543896 6:-6.1602528 7:-9.8075319 8:-8.6647701 9:-8.7690314 10:-7.6876122 
1 1:0.39653661 2:0.21333152 3:0.15756512 4:-0.38509698 5:0.22865083 6:-1.3673181 7:-0.53887463 8:-0.10089963 9:-0.75173297 10:1.613351 
1 1:0.014974474 2:0.049039835 3:-0.27297534 4:-0.56778968 5:-0.069898909 6:-0.077645112 7:-0.16624077 8:-0.50828549 9:0.040136813 10:0.18800728 
0.09391252085307801 1:0.96700309 2:1.0914334 3:0.18545053 4:-0.76556396 5:3.4232192 6:0.95924887 7:-1.9825716 8:-2.1404981 9:-1.1957664 10:0.82441624 
1 1:-0.11083292 2:-0.19919022 3:-0.30111369 4:-0.037227474 5:0.5617054 6:1.163138 7:0.33929448 8:-0.27601137 9:-0.46873832 10:0.073987373 
0.04439306115380382 1:-0.72748715 2:-0.72469901 3:-0.24653166 4:0.99022665 5:4.3543689 6:-7.5532467 7:-4.3663453 8:-0.5585186 9:1.3634258 10:3.9382473 
1 1:-0.34261818 2:-0.33796884 3:0.58090688 4:-0.68237896 5:-1.7577654 6:4.9767051 7:-1.5399218 8:-2.2819974 9:-2.1701154 10:-0.55689652 
1 1:-0.16187575 2:-0.11994913 3:-0.0007184768 4:0.35476533 5:0.53726122 6:1.1063205 7:0.77038379 8:0.765496 9:-0.03533157 10:-0.073333152 
0.08300724097577793 1:-0.57115171 2:-0.56317591 3:-1.1856788 4:-1.6990977 5:-1.824547 6:-2.5740488 7:-2.5721566 8:0.17983054 9:-1.5947877 10:-1.640164 
0.007467825013063454 1:-0.96546951 2:-0.98117626 3:-0.94249539 4:-1.2134302 5:6.1374614 6:11.407923 7:3.2555721 8:-1.6508521 9:-2.4204058 10:-2.467957 
1 1:0.30897827 2:0.34880158 3:-0.50740741 4:-0.26123471 5:-0.94413265 6:3.5063102 7:-0.84609327 8:-0.67385658 9:-0.62866645 10:-0.60495129 
1 1:0.78722825 2:0.80780889 3:1.0363802 4:0.99664964 5:0.75113655 6:0.79228383 7:0.1447622 8:-0.20031793 9:-0.37982682 10:-0.56623222 
0.03308158660061657 1:-0.88135375 2:-0.85362984 3:-0.69412527 4:6.5484856 5:-0.94107661 6:-9.4912682 7:-5.5039008 8:-0.91415025 9:3.6318298 10:5.4240237 
1 1:-2.0153746 2:-2.0108066 3:-1.5404515 4:-0.014799987 5:1.4422764 6:3.6045412 7:2.644962 8:0.76047899 9:1.1655965 10:3.6530675 
1 1:-0.5508669 2:-0.52003449 3:-0.010473014 4:0.84856679 5:1.189364 6:-0.14924415 7:0.32592039 8:-0.056968392 9:-0.29532717 10:0.38142577 
0.02737181211063573 1:0.59221782 2:0.64682977 3:0.41801941 4:5.3708162 5:-0.12711751 6:-6.8214387 7:-4.876342 8:-1.7624797 9:0.8872815 10:2.6239432 
1 1:-0.30247832 2:-0.24834227 3:0.077646563 4:-0.66950731 5:-0.96190906 6:6.0133572 7:-1.5405846 8:-2.173631 9:-2.1969371 10:-0.28435634 
0.1490313467097073 1:-1.9198568 2:-1.9772915 3:-2.0090583 4:0.75994755 5:-1.2953884 6:-8.9099248 7:-8.1970151 8:-1.27609 9:1.9383792 10:3.4010674 
0.0513645483089259 1:-0.44490551 2:-0.43004435 3:-0.19349977 4:0.64275453 5:4.8490678 6:-7.4129749 7:-4.4962871 8:-0.87673352 9:0.47528132 10:2.7210438 
1 1:-0.62557006 2:-0.69340811 3:0.056475503 4:-0.7942753 5:-1.8941644 6:4.6768761 7:-1.4167873 8:-2.2086071 9:-1.920486 10:0.23544104 
0.003401343319627967 1:-1.0859746 2:-1.0895259 3:-0.61486158 4:8.5516489 5:1.5678303 6:-5.8762265 7:-4.3940683 8:-1.9899704 9:0.79015797 10:2.7599611 
1 1:-0.49186105 2:-0.47204022 3:0.11986369 4:-0.93753233 5:-1.4333494 6:5.6302467 7:-1.6625447 8:-2.4164631 9:-2.5304131 10:-0.78744987 
0.05288592942849343 1:1.029816 2:1.0662687 3:0.40814256 4:0.63481097 5:0.089756461 6:-9.3309662 7:-6.6494571 8:-0.02851476 9:2.6020178 10:6.0116597 
1 1:0.68965358 2:0.79894598 3:0.34259488 4:-0.1756452 5:-0.25152226 6:0.71228463 7:-0.12215986 8:-0.81991863 9:-0.17226932 10:-0.11295176 
1 1:-0.53735123 2:-0.50377846 3:0.10606945 4:-0.96829849 5:-1.6197852 6:5.4378987 7:-1.5944203 8:-2.1405211 9:-2.2152341 10:-0.50998369 
1 1:-0.54258093 2:-0.52499639 3:-0.19707466 4:-0.12964104 5:0.36708352 6:5.2842746 7:0.23063238 8:-1.354228 9:-1.7309591 10:-1.0332215 
0.03478102703658381 1:-1.0123239 2:-0.96786723 3:-1.0128216 4:5.0348387 5:-1.4155023 6:-9.4815856 7:-4.7219493 8:-0.27942843 9:2.7643046 10:5.7355193 
0.08933742944713212 1:-1.0282271 2:-1.0164107 3:-0.37020762 4:9.8834415 5:0.035345516 6:-6.3608857 7:-4.2466603 8:-1.0509875 9:1.1015946 10:3.0877215 
0.01123098264754679 1:-0.57081443 2:-0.77465711 3:1.350994 4:8.2953402 5:-2.0711512 6:-10.672834 7:-4.8361142 8:-0.33227507 9:1.75036 10:2.875766 
0.09742275622826428 1:0.80999865 2:0.83443025 3:0.46624493 4:0.77649373 5:1.7767984 6:-7.5976563 7:-5.1289981 8:1.0533935 9:3.7003337 10:7.6708958 
1 1:0.73401025 2:0.75173879 3:0.80492799 4:0.30080527 5:-0.13064681 6:1.1045366 7:-1.0745942 8:-0.72683401 9:-0.46164032 10:-0.5089466 
1 1:-0.73116651 2:-0.6738636 3:-0.19030067 4:0.01742064 5:0.2807852 6:0.93569303 7:0.074794019 8:-0.1434102 9:-0.16688303 10:0.15791118 
1 1:0.079130932 2:0.10070484 3:0.05976618 4:0.11590265 5:0.23087691 6:0.93431518 7:-0.056245443 8:-0.23949377 9:-0.081475448 10:0.1067241 
0.2194329169780463 1:4.7825688 2:4.8931108 3:2.3306114 4:0.19509183 5:-5.6249858 6:-12.032747 7:-10.434592 8:-7.6584491 9:-4.1233047 10:3.4902873 
0.008088353592564037 1:-0.38149063 2:-0.32978 3:-0.3032745 4:6.6867892 5:-2.2269245 6:-9.1697333 7:-4.1751573 8:1.063504 9:2.9843919 10:4.4413405 
0.06899879399584795 1:-0.61742073 2:-0.56631112 3:-0.5274329 4:-0.49319242 5:-1.0067425 6:5.7220005 7:0.55888022 8:-0.88152086 9:0.51813629 10:5.9601196 
0.08375688672366886 1:-1.3048359 2:-1.7207737 3:2.4143126 4:8.3900025 5:-3.1269672 6:-8.3860959 7:-4.2490591 8:-0.74844126 9:2.2627736 10:4.2596839 
1 1:-0.80024594 2:-0.81030279 3:-0.15848064 4:0.48836496 5:0.73601065 6:0.84924237 7:0.59534632 8:-0.54894652 9:-0.26854234 10:-0.38400315 
0.5558677669456286 1:0.45887656 2:0.46343685 3:-0.46772551 4:0.73114469 5:2.2277514 6:4.569908 7:4.6196077 8:4.0267974 9:1.9418158 10:1.0242645 
1 1:-0.84220579 2:-0.80899487 3:1.950064 4:1.7095277 5:4.3888419 6:8.3809843 7:7.6752697 8:4.0267566 9:-0.91020613 10:-1.2067271 
1 1:-0.41417912 2:-0.40935419 3:-0.70292662 4:-0.81848877 5:-1.0043319 6:0.4846127 7:0.94307579 8:-0.93957847 9:-0.66779991 10:-0.29971096 
1 1:-0.46949878 2:-0.45798518 3:0.24623432 4:-0.87487584 5:-1.4905022 6:5.4361802 7:-1.9994054 8:-2.4852242 9:-2.3994514 10:-0.49874021 
0.1874628622391775 1:-4.7937659 2:-4.7500294 3:-5.387346 4:-4.6069783 5:-3.2397059 6:-5.892397 7:-5.0829304 8:-2.9088208 9:2.2142484 10:-0.66839123 
1 1:-0.36663594 2:-0.43734273 3:0.45127631 4:-0.3476892 5:-1.4293134 6:4.8413726 7:-0.91016994 8:-2.2852554 9:-2.2213004 10:-0.45308577 
0.1722421548113619 1:-1.9635819 2:-1.8561241 3:-3.481252 4:-4.8461467 5:-4.4345569 6:-5.3137016 7:-4.0922401 8:3.1556171 9:5.0160426 10:3.5739667 
0.0101777933720389 1:-1.4545689 2:-1.4400587 3:-1.6678412 4:5.7611681 5:0.33679681 6:-8.5830752 7:-4.1721222 8:-0.84722791 9:1.6932645 10:3.6381507 
1 1:0.56169709 2:0.56226123 3:0.23643915 4:0.54770647 5:-0.97276599 6:-2.5273415 7:-1.1339337 8:-0.39342355 9:-0.22205164 10:0.071931939 
0.1359497715493126 1:3.3653429 2:3.3694789 3:4.005205 4:5.2200407 5:2.8426701 6:-8.3810754 7:-5.4731291 8:-1.1258683 9:1.0462675 10:3.6053377 
0.04020832724296215 1:-1.2764038 2:-1.2811786 3:-1.136655 4:-1.082689 5:2.0148092 6:9.4559096 7:4.8977446 8:-4.6226743 9:-3.6261705 10:-4.3393981 
0.1964605145662756 1:4.9168458 2:5.3532549 3:1.3856233 4:-0.71820289 5:-1.4323675 6:-2.7623681 7:-1.7562356 8:-0.22406123 9:-0.41542904 10:-2.0953825 
0.09407608362829503 1:-0.22828243 2:-0.12944129 3:-0.64340817 4:6.1012094 5:0.4541297 6:-3.2776414 7:-1.9718073 8:-2.299665 9:-2.6483909 10:-0.76824379 
1 1:-2.0784789 2:-2.0684452 3:-2.3592283 4:-1.7861597 5:-0.46844284 6:1.921526 7:0.45918595 8:-0.66599487 9:-0.65597554 10:-0.27026279 
0.1967838974158642 1:-2.1783614 2:-2.2240429 3:-2.5369415 4:-1.2245674 5:1.2668632 6:3.3695548 7:1.839603 8:-1.6523788 9:-2.7279193 10:-1.2819031 
1 1:0.51373327 2:0.57860207 3:0.42817925 4:0.19453024 5:0.51162948 6:1.2447385 7:-0.08184655 8:-0.21893701 9:0.83067093 10:0.97334994 
0.2190430979146878 1:3.8413377 2:4.0189584 3:-2.7821886 4:-4.9790994 5:-3.6788358 6:-4.651715 7:-3.6784052 8:-1.6667163 9:-1.0701849 10:-1.050302 
0.0567559391362055 1:-0.95479551 2:-0.96561537 3:-0.97822778 4:-1.2270751 5:4.2988867 6:11.587392 7:4.6669596 8:-1.5771999 9:-2.3285604 10:-2.3153755 
1 1:-0.71329625 2:-0.72270864 3:-0.57952289 4:-0.21812384 5:0.67660083 6:1.989489 7:-0.22445673 8:0.47841058 9:1.0867742 10:0.10730744 
1 1:-0.1271866 2:-0.09167037 3:0.12600868 4:-0.82204676 5:-1.1561655 6:5.3915195 7:-1.8325677 8:-2.2376351 9:-2.4216197 10:-0.93061503 
1 1:-0.52729545 2:-0.51946871 3:-0.32331786 4:-0.077177205 5:0.0026834996 6:-0.16920828 7:0.19473883 8:-0.40587355 9:-0.26845544 10:1.1108554 
0.1119190586578183 1:-0.91780509 2:-0.92808388 3:-0.91632675 4:0.18033976 5:9.7701294 6:7.5723714 7:-0.86769367 8:-1.9474146 9:-2.5270072 10:-2.6675675 
1 1:0.14957197 2:0.17785505 3:0.24227579 4:0.31109054 5:0.12128041 6:0.85961491 7:0.17186445 8:-0.51567382 9:0.081799247 10:0.74087993 
0.1379631891743615 1:0.087196073 2:0.10314378 3:-1.5802276 4:-1.1186316 5:-0.16364441 6:-7.8691198 7:-1.8001912 8:3.3855261 9:2.4654003 10:3.6789185 
1 1:-0.57308063 2:-0.58942163 3:-0.36069794 4:-0.36249166 5:-0.79916972 6:3.1714101 7:-0.47127073 8:-0.71413849 9:-0.66429986 10:-0.5537685 
0.2153218141798333 1:-3.3977316 2:-3.3572263 3:-4.0410267 4:-4.5091013 5:-5.9021392 6:-8.4255342 7:-2.7064415 8:6.4876653 9:6.6361167 10:5.915606 
1 1:0.84483691 2:0.84115076 3:0.73845336 4:-0.023321908 5:-0.22745422 6:-0.54034678 7:-0.23886821 8:-0.31610023 9:-0.29487793 10:-0.10918988 
0.03353143787790993 1:0.34966446 2:0.29020491 3:1.8637105 4:6.4178727 5:-0.90752768 6:-7.4450839 7:-4.8515949 8:-2.0542865 9:0.55702924 10:2.1886401 
0.1880017972467712 1:-1.9832306 2:-2.3152381 3:-4.4545482 4:-0.12249882 5:1.4134749 6:4.2325222 7:4.2197862 8:2.3431697 9:-2.1465279 10:-4.2883223 
0.1149353176270171 1:-0.83538395 2:-0.98847017 3:0.71022368 4:5.7250239 5:-4.6668097 6:-10.852953 7:-5.2035171 8:-0.38098648 9:3.0148594 10:5.077418 
1 1:1.3939384 2:1.3164681 3:1.9760504 4:2.6864384 5:2.6523261 6:2.3354396 7:0.049715523 8:-0.18986359 9:-0.32070442 10:-0.58732924 
0.2209564455999334 1:-8.9579377 2:-9.3265716 3:-1.6093457 4:3.1731271 5:-0.16005612 6:-3.5684172 7:-2.2779734 8:-1.5755573 9:-0.99282854 10:-0.11203954 
1 1:0.12209219 2:0.12509127 3:0.072318051 4:0.22250869 5:0.2704677 6:0.72740346 7:0.496395 8:0.37279222 9:0.115325 10:-0.11119116 
1 1:-0.62237831 2:-0.49083351 3:-0.36183835 4:0.69641396 5:-1.4546673 6:4.3264873 7:-0.46029885 8:-1.1962503 9:-0.8176773 10:-1.3804179 
0.03982857033387337 1:-1.3228261 2:-1.3134651 3:-0.73118306 4:-2.408239 5:-3.0558348 6:-4.5872547 7:-3.8135045 8:-1.6792412 9:-1.3874979 10:0.79004859 
1 1:-0.10979381 2:-0.060403036 3:-0.21755914 4:-0.65425717 5:-0.79902528 6:-1.9820612 7:-0.45025653 8:0.9119626 9:-0.55217727 10:-0.71154552 
1 1:-0.78954473 2:-0.7487575 3:-0.37042717 4:-0.0059912478 5:0.14221221 6:-0.51728897 7:-0.8532999 8:-0.27057404 9:-0.26869893 10:0.73314552 
1 1:-0.16365662 2:-0.19299457 3:-0.28188519 4:-0.038281758 5:-0.35744387 6:-0.92826232 7:-0.5916625 8:-0.25283502 9:-0.75969329 10:1.3948544 
0.006766929942970831 1:-0.69831023 2:-0.69293391 3:-0.3348317 4:8.7024711 5:0.44038257 6:-8.7914114 7:-5.1468677 8:-1.0797659 9:1.3012906 10:2.8696004 
0.1240276106257739 1:-2.7671565 2:-2.6377174 3:-1.3078743 4:-2.7180166 5:-5.0754736 6:-4.6662987 7:-0.64246345 8:2.0963732 9:1.906259 10:0.77554339 
0.08381703002637286 1:-1.1076112 2:-1.0211622 3:-1.1412752 4:4.2120895 5:-0.90767044 6:-6.6886215 7:-2.4149693 8:1.4450341 9:1.9978301 10:2.9634859 
1 1:-0.1143808 2:-0.11158233 3:-0.30826628 4:-0.46741032 5:-0.59131324 6:0.43481918 7:0.23794036 8:-1.0982932 9:-0.4674643 10:-0.16278466 
1 1:-0.17309077 2:-0.12285606 3:-1.3386783 4:-0.69696221 5:0.27944625 6:0.31243395 7:0.61908624 8:0.077611852 9:0.28646942 10:0.43800747 
0.04562219026077028 1:-1.1349791 2:-1.5996284 3:2.2567322 4:4.5393393 5:-1.8999037 6:-7.0414917 7:-4.6666865 8:-1.7611791 9:1.2257316 10:2.8127418 
0.07467957175950329 1:1.9718459 2:1.9565914 3:1.4259702 4:1.6061861 5:2.5199826 6:-3.0498695 7:-0.70763634 8:-0.36255579 9:-0.76053297 10:-0.64795685 
0.03675149314814949 1:-1.5931178 2:-1.8877443 3:0.9442952 4:4.7740796 5:-1.1022954 6:-6.2789149 7:-4.4352907 8:-1.6477932 9:1.2972957 10:2.7807599 
0.1685944155583378 1:-4.0305926 2:-4.1051379 3:1.6243957 4:2.9447629 5:3.9083434 6:4.7326112 7:4.8189126 8:3.077857 9:1.1802608 10:0.58947427 
1 1:-0.99204581 2:-1.0917736 3:0.059740316 4:0.4620219 5:0.27674139 6:1.7264964 7:0.54603158 8:-0.19072192 9:-0.63761489 10:-0.78914058 
1 1:0.6568606 2:0.76637733 3:0.4038697 4:-0.068075759 5:-0.22725958 6:1.0272832 7:0.24718538 8:-0.78173499 9:-0.2403277 10:-0.30805218 
0.1641944563741304 1:6.0909526 2:6.142383 3:3.89282 4:-1.5724538 5:-2.0291959 6:-2.4753553 7:-1.9520425 8:-1.0494332 9:-1.8062099 10:0.056302204 
0.5799736823211886 1:-0.28856982 2:-0.27454801 3:0.044552544 4:-0.32174347 5:0.3118078 6:-0.59431965 7:-1.2435009 8:-0.28944106 9:0.092303961 10:1.2756564 
1 1:-0.19416351 2:-0.19646947 3:-0.20092067 4:0.24599073 5:-0.023202229 6:-1.5705374 7:-0.3675556 8:0.11902233 9:0.52968284 10:1.6012633 
0.01452631758465178 1:-1.4454907 2:-1.8821736 3:2.2321881 4:6.3986374 5:-3.2466006 6:-7.7320853 7:-4.6327709 8:-1.3086279 9:1.2280996 10:2.7995631 
0.03261268569363727 1:-4.4191696 2:-4.3394145 3:-0.87011415 4:-0.066375341 5:0.64142247 6:2.4162974 7:1.047042 8:0.15413843 9:-1.0052954 10:0.61215851 
1 1:-0.48700335 2:-0.45252473 3:-0.016278811 4:0.15452607 5:-0.40756581 6:0.6425742 7:0.14648623 8:0.49720655 9:0.02943128 10:-0.18471032 
0.2166465792901368 1:-8.1689861 2:-8.4138218 3:-3.9451479 4:-0.61212348 5:2.7297579 6:6.3772317 7:3.9787234 8:0.68896451 9:-0.36677656 10:-0.58585927 
1 1:-2.2964377 2:-2.3333065 3:-1.5990151 4:-0.57354873 5:0.34113458 6:-2.1180903 7:-0.37994275 8:-0.17602693 9:0.73428714 10:0.81634482 
1 1:0.015235643 2:-0.0014353257 3:0.036821047 4:0.05527841 5:-0.15214936 6:0.070563578 7:-0.13092947 8:-0.45114828 9:-0.71659808 10:2.5910336 
1 1:0.25054975 2:0.3360745 3:-0.09618621 4:-0.88206758 5:-0.40843957 6:2.5468703 7:-0.69815851 8:-1.1607999 9:-0.0088223756 10:1.2081106 
0.03723472027948304 1:-0.3896768 2:-0.35664175 3:-0.30368144 4:6.8308761 5:-1.7893326 6:-9.5014621 7:-3.2470228 8:0.32253635 9:1.9967162 10:3.4661485 
0.2194447427851072 1:3.7649051 2:3.8351205 3:3.5072673 4:3.1060372 5:-1.6066959 6:-11.050218 7:-10.445989 8:-9.062412 9:-0.55802131 10:1.2028551 
0.1587788935993307 1:-1.0157786 2:-1.0154562 3:-0.52008143 4:9.4909227 5:2.0443534 6:-4.0354815 7:-3.5224636 8:-1.5653772 9:0.32828178 10:2.0716995 
1 1:-0.22197376 2:-0.21321418 3:-0.052350592 4:-0.10495336 5:0.050074762 6:0.37126074 7:0.11550028 8:0.16542448 9:0.10767797 10:-0.35542692 
1 1:-0.66467987 2:-0.68597226 3:0.31047314 4:-0.82251512 5:-1.6882278 6:5.1163132 7:-1.4009698 8:-2.3065361 9:-2.6436661 10:-1.4119411 
1 1:-0.46915601 2:-0.48012939 3:0.3286462 4:0.65717011 5:0.80601781 6:1.4203484 7:0.73420747 8:-0.6444552 9:4.1413018 10:0.39049185 
1 1:-0.4971852 2:-0.4984024 3:-0.50226107 4:-0.16418257 5:0.90338253 6:-1.4865427 7:-0.53086968 8:-0.20911618 9:0.12818656 10:0.9463567 
1 1:-1.1149588 2:-1.1077062 3:-1.0495606 4:0.0072130115 5:-0.16690173 6:-1.6561642 7:-0.18502437 8:1.2822045 9:0.24498349 10:-0.42513246 
1 1:-0.051002013 2:-0.081652658 3:-0.20217813 4:0.063981643 5:0.63850777 6:-1.2981721 7:-0.30546075 8:-0.21550919 9:-0.08556083 10:0.0074890433 
1 1:-1.5630873 2:-1.5269074 3:-1.2297869 4:-0.80377961 5:0.14293405 6:1.902478 7:0.71330091 8:-1.2303206 9:-1.2769494 10:-0.46913073 
1 1:0.095245689 2:-0.077940226 3:-0.41220375 4:-0.455992 5:-0.40415677 6:-0.50725719 7:-0.32825052 8:-0.4404963 9:0.80403611 10:1.1688803 
1 1:0.89889048 2:0.95431356 3:-0.18125701 4:-0.49615353 5:-0.4327077 6:1.0222632 7:0.097561048 8:-1.1901915 9:-0.57540418 10:-0.51680119 
0.03275729094029518 1:0.99246802 2:1.0753108 3:0.54799989 4:5.7461645 5:-1.9688158 6:-9.5825305 7:-5.4264271 8:-1.4756919 9:1.8103515 10:3.9916264 
0.1031981254895264 1:4.5181634 2:4.6560582 3:3.6583837 4:0.84801294 5:-1.0393289 6:-5.7789077 7:-2.7059744 8:-0.53883478 9:1.3739669 10:3.9876045 
0.3655170044695091 1:-2.682637 2:-2.7024341 3:-0.71838454 4:0.7194038 5:2.8521415 6:5.0590476 7:3.3383456 8:1.4165503 9:0.083045839 10:1.4555533 
0.2081277965099419 1:4.3321028 2:4.3910865 3:2.3502968 4:-0.37829134 5:-2.6353043 6:-4.7033225 7:-4.5505113 8:-4.6215292 9:-4.3977464 10:-3.6638156 
1 1:-0.20565004 2:-0.19858127 3:-0.38472569 4:-0.52686705 5:-0.66167172 6:0.28099312 7:0.17769772 8:-1.0581527 9:-0.55450724 10:-0.15720715 
0.4365110859304858 1:0.079160594 2:0.079455154 3:-0.086122293 4:0.5610001 5:-0.75232922 6:-1.8412963 7:-0.14454781 8:0.84464263 9:2.4233103 10:1.9810646 
1 1:-0.11586391 2:-0.11703004 3:-0.2342232 4:0.84338771 5:-0.6978624 6:-1.7762423 7:-0.37993503 8:0.044005668 9:0.42998812 10:1.3164383 
0.5318874713006212 1:0.24329226 2:0.22474712 3:-0.26111694 4:-0.25882329 5:-0.13633716 6:-0.68812142 7:-0.49876055 8:0.042664296 9:-0.53811612 10:3.6190489 
0.5993568961133681 1:0.11216019 2:0.18274278 3:-0.52961827 4:-1.1228439 5:-0.61209458 6:2.8671574 7:2.0843868 8:-0.58070603 9:-0.55973316 10:-0.36585282 
1 1:-0.57722949 2:-0.59931116 3:0.3326806 4:-0.45126827 5:-1.3338868 6:0.76637867 7:-0.04476177 8:0.44186411 9:0.052106585 10:-0.52799273 
1 1:0.62637365 2:0.70191078 3:0.26484695 4:-0.2854184 5:-0.41937941 6:1.3462264 7:0.29842768 8:-1.2030867 9:-0.47401892 10:-0.51696684 
0.6333414382292754 1:0.69694283 2:0.81527721 3:-0.081524122 4:-0.90015114 5:3.2631171 6:1.3109308 7:-1.9159915 8:-2.2807101 9:-1.7884734 10:0.30233471 
0.3055408674644164 1:4.7081396 2:4.8194932 3:2.2165219 4:-0.067205368 5:-2.4485368 6:-6.6036776 7:-4.4348063 8:-1.9524073 9:-0.98625993 10:-1.3691046 
1 1:-2.522231 2:-2.5606473 3:-1.8527635 4:-0.42101823 5:-0.99959328 6:4.2913802 7:-0.2765578 8:-0.94819395 9:-0.95291717 10:-0.9748599 
1 1:-0.1973303 2:-0.2928411 3:-0.028546596 4:0.18311486 5:0.52744668 6:-0.26997515 7:-0.081285652 8:-0.022090552 9:-0.1328677 10:-0.41843257 
1 1:-0.37898433 2:-0.38749754 3:-0.45786018 4:-0.0076341816 5:1.2278173 6:-1.4817845 7:-0.48579859 8:-0.20812661 9:0.027049185 10:0.63847619 
1 1:-0.64837275 2:-0.67538091 3:-0.21275791 4:-0.20055213 5:-0.0037950286 6:1.999927 7:1.0505243 8:1.6492523 9:1.3589524 10:-1.1758753 
1 1:-0.17079147 2:-0.1560662 3:0.64742057 4:-0.19471591 5:-1.6250516 6:2.2118639 7:0.56890229 8:0.13604695 9:0.16345077 10:0.30513493 
1 1:1.2767866 2:1.2958281 3:1.3039344 4:1.2340622 5:-0.66017605 6:-2.2783564 7:-1.1181332 8:-0.15014708 9:-1.2878183 10:-0.60614671 
0.2193514773365389 1:2.7232839 2:2.7980745 3:2.6210476 4:-5.3891451 5:-6.0124467 6:-5.8706448 7:-5.4683992 8:-5.4697958 9:-5.4999787 10:-5.3256284 
0.08801923595684157 1:0.86856991 2:0.81945302 3:2.0978811 4:3.851675 5:1.005138 6:-7.0997311 7:-2.577581 8:0.2842179 9:2.6285838 10:5.466952 
1 1:-1.9131503 2:-1.8119331 3:-0.31905244 4:-0.66891799 5:-0.71275492 6:-1.3406214 7:-0.43117867 8:0.42757659 9:0.47598291 10:0.37875694 
0.274358604216674 1:1.217578 2:1.162597 3:2.2349638 4:5.5443973 5:8.1060282 6:7.1362572 7:4.6988168 8:2.1248745 9:-0.27787425 10:-2.5010611 
0.001414194700207537 1:-1.0637698 2:-1.0098101 3:-1.1958884 4:5.0245461 5:-2.7600304 6:-9.7226439 7:-5.3930742 8:-0.83853226 9:2.4231251 10:4.4841898 
0.08818572288203452 1:-0.49469672 2:-0.44632933 3:-1.2878396 4:-0.59751592 5:7.6511434 6:-1.3672129 7:-1.3927222 8:-0.97070923 9:0.2449419 10:2.0497888 
1 1:-0.11556953 2:-0.10545493 3:-0.018043131 4:-0.25409575 5:-0.77495347 6:1.3295555 7:-0.83887337 8:-0.70247787 9:-0.37522346 10:0.1387422 
0.1917538729034066 1:-5.6608714 2:-5.6300282 3:-1.8525223 4:2.3291758 5:2.5928336 6:3.682879 7:2.9606676 8:1.6570759 9:-0.52426475 10:-2.1754119 
1 1:0.14545002 2:0.1249952 3:0.05394831 4:-0.34908065 5:-0.10128819 6:5.8680631 7:0.33583723 8:-0.72629581 9:-0.688876 10:-0.85355582 
1 1:0.39375189 2:0.3864856 3:-0.39407817 4:-0.7500435 5:-0.84578663 6:0.88446311 7:1.1184132 8:-0.46988058 9:-0.8863388 10:-0.57734127 
1 1:0.077449637 2:0.057416001 3:0.01190866 4:-0.28136784 5:-0.10061412 6:5.4234227 7:0.64442233 8:-0.53217027 9:-0.5403297 10:-0.74668624 
1 1:-0.58136914 2:-0.59093385 3:-0.72178601 4:-0.66716216 5:-0.90290414 6:4.5123152 7:0.64710089 8:-0.87167048 9:-0.95059244 10:-0.86347732 
1 1:0.11756499 2:0.16753536 3:0.084499133 4:0.024539936 5:0.7270623 6:-1.8645021 7:0.51230107 8:-0.69637823 9:-0.38859958 10:0.62161544 
1 1:-0.35724503 2:-0.35901555 3:-0.4191829 4:-0.0058609266 5:0.82363557 6:-0.75111607 7:-0.63666519 8:-0.21642545 9:0.30193954 10:1.1333567 
1 1:0.74829318 2:0.78063709 3:0.29152741 4:-0.3063582 5:-0.27084401 6:6.2769845 7:-0.086558695 8:-1.5860459 9:-1.4941901 10:-1.7006433 
1 1:-0.81044298 2:-0.82806208 3:-0.68224987 4:-0.59316943 5:-0.86869293 6:3.3132841 7:1.1944427 8:-1.0802433 9:-0.064466127 10:0.0028888373 
1 1:0.54832016 2:0.55150499 3:0.0040858313 4:-0.0022135444 5:0.075416152 6:2.867838 7:-1.6793264 8:-1.460786 9:-1.4446098 10:-1.025402 
1 1:-0.14212281 2:-0.10820158 3:0.080581468 4:-0.44985988 5:-0.92147169 6:2.7478871 7:-0.19484913 8:-0.44282287 9:-0.33452439 10:-0.40016809 
1 1:-0.00020073116 2:-0.0092632768 3:-0.58133021 4:-0.60182013 5:-0.11941301 6:-0.040084047 7:-0.99091906 8:-0.47012541 9:-0.22266757 10:0.66037354 
1 1:-0.063280721 2:-0.062880543 3:-0.027808518 4:0.015407142 5:-0.17850253 6:1.6853503 7:0.40522865 8:0.20264146 9:0.1320115 10:0.27851798 
1 1:-0.35076643 2:-0.35251463 3:-0.45483468 4:-0.45406227 5:-0.66333455 6:1.3766505 7:-0.12180592 8:-0.27792226 9:-0.22761954 10:-0.092213368 
1 1:0.53441471 2:0.58566826 3:-0.23553144 4:-0.76451836 5:-1.119225 6:2.1749475 7:-0.95650332 8:-0.56760904 9:-0.45588795 10:-0.067338538 
1 1:0.24252454 2:0.24567334 3:-0.2633356 4:-0.40073295 5:-0.59454859 6:2.248192 7:0.17022964 8:-0.46114663 9:-0.54722349 10:-0.44355687 
1 1:-0.66070269 2:-0.69486184 3:-0.16973302 4:-0.42566026 5:0.14365541 6:6.1989596 7:0.14598875 8:-1.5600986 9:-1.7588905 10:-1.8103075 
1 1:1.7635948 2:1.7627396 3:2.7144415 4:0.7693056 5:-0.92813184 6:4.0766627 7:-0.76885292 8:-1.6950935 9:-1.3459885 10:0.72812438 
0.006757045891247259 1:-1.2779306 2:-1.3460223 3:-0.61238125 4:0.39117057 5:-1.2096213 6:8.2600728 7:4.9169883 8:-5.4575261 9:-7.0781388 10:-3.2371571 
1 1:0.20293047 2:0.20149931 3:0.054841832 4:-0.13092275 5:-0.24397537 6:1.0581295 7:-0.86570607 8:-0.70780375 9:-0.20125285 10:-0.1615723 
1 1:-0.3941043 2:-0.39803912 3:-0.34447479 4:-0.24917754 5:-0.33718644 6:4.9884136 7:-0.044239989 8:-1.913902 9:-1.1740161 10:-1.4055884 
1 1:-0.37541572 2:-0.42971878 3:0.65314006 4:-0.58815096 5:-1.2524797 6:2.4813057 7:-1.3867483 8:-0.92931445 9:0.31093443 10:0.81983991 
1 1:-0.1247163 2:-0.10046206 3:-0.13065328 4:-0.22393291 5:-0.52065504 6:1.8984294 7:-0.85922326 8:-0.71321613 9:-0.2456982 10:-0.18938044 
1 1:0.13672635 2:0.15603524 3:0.57391562 4:-0.086343222 5:-0.64045643 6:2.4748986 7:-0.56397484 8:-1.0133763 9:-0.026209924 10:0.27415461 
1 1:-0.16137175 2:-0.13815727 3:-0.076165089 4:-0.31712656 5:-0.50648274 6:3.4012807 7:0.50098585 8:-0.51030202 9:-0.6682588 10:-0.78915315 
1 1:-0.47709689 2:-0.49101498 3:-0.56235581 4:-0.40187221 5:-1.4039733 6:4.173679 7:0.32521074 8:-0.73389507 9:-0.88185904 10:-1.0784472 
1 1:-2.487428 2:-2.5029706 3:-1.3165568 4:-0.72692522 5:0.47639251 6:6.8415496 7:1.0189683 8:-1.4932345 9:-1.5820346 10:-0.86775695 
1 1:-0.52879697 2:-0.52737633 3:0.57331487 4:0.15484141 5:0.41163567 6:-3.6070332 7:1.1378073 8:-0.6506761 9:-0.76112024 10:0.86727218 
1 1:-0.16134577 2:-0.15871672 3:-0.32490692 4:-0.44655883 5:0.49311192 6:2.2667505 7:-0.47754061 8:-0.67267067 9:-0.58582366 10:-0.14061028 
1 1:0.12115553 2:0.13559865 3:0.0072179966 4:-0.20276495 5:-0.75080276 6:1.5072413 7:-0.88503552 8:-0.36017682 9:-0.14780417 10:0.60315355 
1 1:-0.21113642 2:-0.20490807 3:-0.21934269 4:-0.23435422 5:-0.34462478 6:0.57150496 7:0.0031502703 8:-0.0047387304 9:0.073885602 10:-0.10340648 
1 1:-0.087946615 2:-0.10469099 3:-0.26513142 4:-0.34496309 5:0.20085787 6:1.0559355 7:-0.70275554 8:-0.61445078 9:-0.44404693 10:-0.08524239 
1 1:0.69239514 2:0.7557608 3:0.51666619 4:-0.39817165 5:-0.97091607 6:2.2096824 7:-0.4052765 8:-0.53848004 9:-0.11890364 10:-0.27917156 
1 1:-0.48236314 2:-0.48872122 3:-0.44575501 4:-0.33617815 5:-0.14170386 6:4.7431929 7:0.423249 8:-1.932138 9:-1.1403728 10:-1.2038467 
0.1433336001756537 1:5.9760263 2:6.1430185 3:5.7351267 4:1.5123614 5:1.0500281 6:-6.7673093 7:-5.6504071 8:-0.91607918 9:1.1381753 10:2.9639149 
1 1:0.34441818 2:0.32128673 3:-0.32534283 4:-0.48824881 5:-0.87953432 6:2.3447803 7:0.013627293 8:-0.33183664 9:-0.56798408 10:-0.073990067 
1 1:0.070460322 2:0.035582803 3:0.015540478 4:-0.33394324 5:-0.12438802 6:5.3116983 7:0.35367915 8:-0.6079618 9:-0.58403118 10:-0.70079731 
1 1:-0.56288437 2:-0.5667627 3:-0.48242157 4:-0.37178757 5:0.20133821 6:4.9419454 7:0.63628476 8:-2.134625 9:-1.2742469 10:-1.4055402 
1 1:0.083052586 2:0.075205006 3:0.024683555 4:-0.29147169 5:-0.11465281 6:5.9951798 7:0.7404963 8:-0.57759734 9:-0.54275608 10:-0.73562349 
1 1:0.62802479 2:0.67332926 3:0.013087695 4:-0.42625085 5:-0.85605241 6:2.439053 7:-0.38251313 8:-0.76100939 9:-0.66504549 10:0.058262244 
1 1:-0.53673017 2:-0.53589117 3:-0.57498453 4:0.19599986 5:0.3568616 6:-0.7664579 7:-0.61794404 8:-0.29370129 9:0.11492847 10:0.94936925 
1 1:1.3166193 2:1.4143487 3:1.2848593 4:-0.5783443 5:-1.3497573 6:3.3511028 7:-0.90600923 8:-0.77790797 9:-0.70656364 10:-0.43297908 
1 1:-0.17413312 2:-0.17560091 3:-0.1550057 4:-0.10767193 5:-0.15082038 6:1.2916762 7:0.37689622 8:0.14704639 9:0.24180438 10:0.38419493 
1 1:-0.29238878 2:-0.29357962 3:-0.36927516 4:-0.53143355 5:0.83756258 6:3.4973047 7:-0.074567961 8:-0.90551986 9:-0.85842235 10:-0.52280887 
1 1:0.49151028 2:0.54067084 3:0.18265914 4:-0.56812333 5:-0.91198437 6:2.5357515 7:-0.58139927 8:-0.46328287 9:-0.43471781 10:-0.016250369 
1 1:-0.3639316 2:-0.37394913 3:-0.36559113 4:-0.33005696 5:-1.0327054 6:4.2872806 7:0.62783069 8:-1.0156765 9:-0.85950145 10:-0.60432175 
1 1:-0.93853361 2:-0.94202337 3:-0.94489627 4:-0.19798719 5:-0.46145946 6:2.0619806 7:0.2472573 8:0.099976132 9:0.063753751 10:1.2743415 
1 1:-0.24771344 2:-0.18306521 3:-0.14148701 4:-0.34892802 5:-0.5730516 6:5.8153166 7:0.61734328 8:-0.89346249 9:-1.2026208 10:-1.8802251 
1 1:1.0954196 2:1.1131446 3:0.81104747 4:0.21278118 5:-0.72503293 6:1.9785145 7:-0.97592037 8:-0.47764891 9:-0.55482426 10:-0.19320357 
1 1:0.19540978 2:0.16563938 3:0.93703562 4:0.39758803 5:-0.14963748 6:3.6130471 7:-0.29807282 8:-0.42719307 9:0.73552829 10:0.68120767 
1 1:-0.10388088 2:-0.10192195 3:-0.17304932 4:-0.1156827 5:-0.24818103 6:-2.8849369 7:-1.3631966 8:0.072350649 9:0.21996073 10:0.403439 
0.08353392056686322 1:-1.0262993 2:-1.0721208 3:0.3417549 4:-1.3866833 5:6.9913492 6:11.079912 7:-0.59849315 8:-4.3555208 9:-5.8786858 10:-5.5003945 
1 1:0.17896888 2:0.17971764 3:0.044539069 4:-0.13329568 5:-0.40856295 6:1.7824755 7:-0.86195299 8:-0.86457466 9:-0.27845248 10:-0.18911442 
1 1:1.7554237 2:1.7917749 3:1.9855662 4:1.159404 5:0.82169433 6:3.5106934 7:1.7346988 8:-0.97780989 9:-1.6203029 10:-1.9339073 
1 1:-0.4784393 2:-0.48895004 3:-0.37397659 4:-0.23552736 5:-0.23866845 6:4.7779739 7:0.08566613 8:-1.8752037 9:-1.1385569 10:-1.3099174 
1 1:0.14835826 2:0.16239907 3:0.048540138 4:-0.078925278 5:-0.24517634 6:1.0622114 7:-0.87162815 8:-0.693641 9:-0.12766937 10:-0.046728482 
1 1:0.028566712 2:0.028045666 3:-0.034414841 4:-0.24854344 5:-0.36037675 6:1.4104806 7:-0.74829843 8:-0.73216792 9:-0.1240119 10:-0.099698503 
1 1:0.54821374 2:0.60604027 3:0.31156969 4:-0.2456429 5:-0.88320521 6:2.6364859 7:-0.7933743 8:-0.55004673 9:-0.23955183 10:-0.046798048 
1 1:0.05319209 2:0.11089365 3:-0.016336152 4:-0.44820814 5:-0.81460993 6:2.3380019 7:-0.62870666 8:-0.53518717 9:-0.087294567 10:0.062740525 
1 1:0.35451354 2:0.32183347 3:0.31430187 4:-0.018636714 5:0.14357732 6:5.2805543 7:0.56131769 8:-0.28396705 9:-0.30184895 10:-0.45221359 
0.626298491133787 1:-0.27528802 2:-0.26635272 3:-0.004935091 4:-0.0080871936 5:0.86977593 6:5.7110878 7:-2.2101548 8:-1.0901065 9:-0.58800569 10:-0.59387209 
1 1:0.07500322 2:0.084199807 3:0.035364909 4:-0.22399029 5:-0.43844963 6:1.53102 7:-0.8404304 8:-0.73164772 9:-0.27166868 10:-0.23620221 
1 1:0.17070162 2:0.18529245 3:0.23956943 4:0.012122258 5:0.070781988 6:5.4925948 7:0.43548972 8:-0.33419843 9:-0.26479708 10:-0.47322692 
1 1:0.15962772 2:0.16540467 3:0.092051913 4:-0.12665951 5:-0.46313953 6:2.0025039 7:-1.0636559 8:-0.8383351 9:-0.25454401 10:-0.14831083 
1 1:-0.55911903 2:-0.57566397 3:-0.23855938 4:-0.35262977 5:1.6508586 6:5.9988291 7:-0.14855193 8:-2.0624603 9:-2.2650836 10:-1.5082866 
1 1:-0.14619942 2:-0.16307535 3:-0.42396463 4:-0.53244143 5:0.21929181 6:0.94545818 7:-0.50615983 8:-0.44434039 9:-0.1838166 10:0.17239615 
1 1:0.27814527 2:0.27715022 3:0.055403253 4:-0.11680371 5:-0.33349901 6:1.2273249 7:-0.9031823 8:-0.75096573 9:-0.15668808 10:-0.12858703 
1 1:-0.14274396 2:-0.16153189 3:-0.12716514 4:-0.39130852 5:-0.27237517 6:1.7053075 7:-0.69279767 8:-0.46937366 9:-0.11144078 10:0.025295971 
1 1:-0.10621719 2:-0.1082365 3:-0.11898175 4:-0.15918173 5:-0.34777887 6:1.1151188 7:-0.88995892 8:-0.68659295 9:-0.24565998 10:-0.066884244 
1 1:0.086650886 2:0.096133365 3:0.016975224 4:-0.14157866 5:-0.43288772 6:1.7663057 7:-0.81650792 8:-0.6924702 9:-0.22051624 10:-0.081829414 
1 1:0.04241135 2:0.038561567 3:0.030745422 4:-0.36199951 5:-0.38509492 6:2.0640921 7:0.13065014 8:0.19659851 9:0.39351061 10:0.45170993 
1 1:0.16979627 2:0.19347621 3:-0.15135396 4:-0.42685231 5:-0.67713906 6:2.8477599 7:0.33475326 8:-0.49758613 9:-0.53970907 10:-0.34867035 
1 1:0.21288601 2:0.20280448 3:0.057014501 4:-0.16927809 5:-0.40215749 6:1.6173893 7:-1.0137067 8:-0.76035699 9:-0.22995918 10:-0.15150184 
1 1:2.5473892 2:2.5585115 3:1.9793005 4:0.53242377 5:-1.6535031 6:5.0213081 7:-0.9299733 8:-1.8394478 9:-2.352332 10:-1.2584585 
1 1:0.029908429 2:0.012720016 3:0.041939602 4:-0.28203489 5:-0.033527222 6:6.32345 7:0.42973767 8:-0.7769722 9:-0.78747194 10:-0.90486416 
1 1:0.10093764 2:0.070244246 3:0.074680039 4:-0.22282037 5:-0.14496804 6:6.5771793 7:0.48143661 8:-0.53217354 9:-0.52049679 10:-0.74041751 
1 1:0.052564742 2:0.071636344 3:-0.16346053 4:-0.40234358 5:-0.38733596 6:5.0119229 7:1.4552785 8:-0.18321746 9:-0.86016761 10:-0.99962 
0.04652164951435515 1:-2.421123 2:-2.4525633 3:-2.5079065 4:-0.88387272 5:1.5429644 6:3.4463346 7:1.3942166 8:-1.9520638 9:-2.6794627 10:-0.97958737 
1 1:-0.1846082 2:-0.18377513 3:-0.27123166 4:-0.45385811 5:0.66226496 6:3.5337703 7:0.013873326 8:-0.6471796 9:-0.57011144 10:-0.23952483 
1 1:-0.17628281 2:-0.17163147 3:0.08324322 4:-0.34895328 5:-1.0585785 6:3.121115 7:-1.1729063 8:-0.79844789 9:-0.62720716 10:-0.19398126 
1 1:0.037340246 2:0.050904843 3:0.008140566 4:-0.17020258 5:-0.24252096 6:2.8444466 7:-0.83464516 8:-0.90921114 9:-0.51739441 10:-0.58649052 
1 1:-0.19589371 2:-0.16487141 3:-0.21752645 4:-0.59395958 5:-1.0431817 6:3.096618 7:-0.33063777 8:-0.6209167 9:-0.75714363 10:-0.1800369 
1 1:-0.86617756 2:-0.86809449 3:-0.73333242 4:-0.66063887 5:-1.0942179 6:2.8517592 7:0.40627856 8:-1.6557667 9:-0.2391386 10:-0.039351938 
1 1:-0.58231231 2:-0.59061032 3:-0.60197603 4:-0.38200729 5:-0.50606637 6:3.4521833 7:0.56302175 8:-0.10922712 9:-0.20864709 10:-0.34582185 
1 1:-0.43868437 2:-0.43769801 3:-0.48056457 4:-0.52256666 5:-0.070640077 6:0.95066803 7:-0.58002651 8:-0.43842105 9:-0.1685813 10:0.40372883 
1 1:-0.58080387 2:-0.55980687 3:-0.30395107 4:-0.37955422 5:0.041279031 6:3.09325 7:-0.17667829 8:-1.7554466 9:-0.99048467 10:-0.98530187 
1 1:-0.058525865 2:-0.049831728 3:0.17459524 4:0.18449726 5:-0.39362532 6:5.6539211 7:1.2261982 8:-0.49143088 9:-0.77879392 10:-1.3740576 
1 1:-0.12003362 2:-0.081934762 3:0.043862343 4:-0.45576403 5:-1.1060211 6:2.5569985 7:-2.2677207 8:-0.93408057 9:-0.48888609 10:-0.3419662 
1 1:0.13457607 2:0.15269285 3:0.081689187 4:-0.059753919 5:-0.43985944 6:1.8411966 7:-0.96000827 8:-0.84888229 9:-0.32329573 10:-0.22085767 
1 1:-0.32468056 2:-0.3363912 3:-0.61055408 4:-0.54650193 5:0.34534642 6:2.7437292 7:-0.31170715 8:-0.74751834 9:-0.65029176 10:-0.25111991 
1 1:0.65290606 2:0.6346142 3:0.11625277 4:-0.41158864 5:-0.17696171 6:6.4157218 7:0.26219221 8:-0.72951827 9:-0.8567806 10:-1.0380064 
1 1:-0.48099262 2:-0.46523982 3:-0.079604283 4:-0.074994342 5:0.55191417 6:5.8711176 7:-2.1901927 8:-1.0606217 9:-0.74851009 10:-0.78739379 
1 1:-0.27697495 2:-0.2786273 3:-0.28493845 4:-0.35860473 5:0.50488339 6:2.4230475 7:-0.4413246 8:-0.5498594 9:-0.4252832 10:0.084843217 
1 1:0.023286367 2:0.026416494 3:0.056929661 4:-0.075865255 5:-0.33586584 6:2.151577 7:-0.76952742 8:-0.16563129 9:-0.47834343 10:-0.69196128 
1 1:-0.18865879 2:-0.2075435 3:-0.16969879 4:-0.15812909 5:-0.36488507 6:1.5597089 7:-0.80960326 8:-0.59730071 9:-0.18109899 10:-0.075705191 
1 1:0.20249753 2:0.19789593 3:0.1005825 4:-0.11399479 5:-0.33320193 6:1.2899325 7:-0.9625176 8:-0.70478744 9:-0.18194717 10:-0.17090438 
1 1:0.0073079963 2:-0.023657497 3:-0.0013406375 4:-0.46475752 5:-0.1777691 6:6.4608863 7:0.14549878 8:-0.90403954 9:-0.88689158 10:-1.0913254 
1 1:-0.10670302 2:-0.12816438 3:-0.19220381 4:-0.40493927 5:-0.081947143 6:4.3480836 7:0.016461486 8:-0.64508124 9:-0.61085786 10:-0.62961259 
1 1:-0.34870137 2:-0.35256431 3:-0.43686736 4:-0.54517224 5:0.20926705 6:3.3968017 7:-0.23731542 8:-0.71663733 9:-0.64242744 10:-0.28878873 
1 1:0.99518877 2:1.1117128 3:0.97305781 4:-0.55827023 5:-1.1832652 6:3.6300577 7:-0.80396967 8:-0.75316762 9:-0.69192912 10:-0.38989159 
1 1:0.048435544 2:0.015996069 3:0.053533193 4:-0.17344498 5:-0.033319078 6:5.7936502 7:0.65878684 8:-0.57863204 9:-0.54600776 10:-0.60066687 
1 1:-0.58547286 2:-0.58515232 3:-0.62459874 4:-0.28284917 5:-0.057264208 6:7.0438787 7:0.49376609 8:-2.494814 9:-1.9222219 10:-1.5972736 
1 1:-0.11291035 2:-0.17596317 3:0.57197629 4:0.10802792 5:-1.3922989 6:2.812186 7:-1.2676801 8:-0.8873765 9:-0.58913191 10:-0.10011394 
1 1:-0.39823353 2:-0.40430354 3:-0.49925214 4:-0.38553011 5:-0.46801652 6:1.1948502 7:0.40041638 8:0.10889161 9:0.06442799 10:0.031044498 
1 1:0.054237281 2:0.050183965 3:0.17161438 4:-0.35825562 5:-0.75205639 6:5.1373645 7:0.15738064 8:-1.4475962 9:-1.5643796 10:-1.3100671 
1 1:0.15807991 2:0.1785789 3:-0.18324525 4:0.17029341 5:0.0069969722 6:1.4379904 7:-0.36600082 8:-0.19106907 9:-0.20840849 10:0.086956158 
1 1:-0.39096218 2:-0.39482471 3:-0.47011998 4:-0.5898976 5:0.41764022 6:2.9408066 7:-0.194022 8:-0.86568374 9:-0.75250532 10:-0.36819242 
0.5336615503893917 1:-0.1415036 2:-0.20707195 3:0.53697444 4:-0.26213535 5:-1.2349915 6:2.1188619 7:-1.5917087 8:-1.1197275 9:-0.0054250942 10:0.71370506 
1 1:-0.12397813 2:-0.12912913 3:-0.13481951 4:-0.15146415 5:-0.25327578 6:1.1486065 7:-0.84717834 8:-0.59174166 9:-0.12503749 10:-0.036247952 
1 1:-0.046799531 2:-0.043353686 3:-0.010280873 4:-0.3008545 5:-0.15646747 6:5.5592917 7:0.74054205 8:-0.57967758 9:-0.54976199 10:-0.6356282 
1 1:-0.31340429 2:-0.31250121 3:-0.37930429 4:-0.44397347 5:-0.034173672 6:1.211106 7:-0.93577452 8:-0.47088257 9:-0.21066176 10:0.35129485 
1 1:-0.41002924 2:-0.51601234 3:0.33511943 4:-0.39295335 5:-1.5026117 6:5.2680264 7:-0.88121924 8:-2.2891257 9:-2.2762644 10:-1.1022913 
1 1:-0.28848898 2:-0.30724571 3:0.74328277 4:-0.3352638 5:-1.5067136 6:6.4989033 7:0.31515747 8:-2.3083601 9:-2.5043329 10:-1.635005 
1 1:-3.6036466 2:-3.6525488 3:-1.6713898 4:0.15178356 5:0.016914814 6:3.9924247 7:-0.35122475 8:-0.46744954 9:0.80307769 10:0.21496063 
1 1:0.24419061 2:0.24421238 3:0.14175234 4:-0.17806117 5:-0.038094221 6:5.9161176 7:0.79112337 8:-0.77756684 9:-0.75594893 10:-0.95588004 
1 1:-1.1316621 2:-1.1918478 3:0.0080732514 4:-0.7918996 5:-1.7592309 6:4.9484571 7:-1.4057063 8:-2.5379847 9:-2.6931771 10:-1.5315375 
1 1:0.29187286 2:0.29845554 3:-0.45470585 4:-0.71352241 5:-1.0705465 6:2.9254719 7:0.27883137 8:-0.84576461 9:-0.79561101 10:-0.3595752 
1 1:-0.025472746 2:-0.028437213 3:-0.013891189 4:-0.27637954 5:-0.23662094 6:6.659225 7:0.39479501 8:-0.6624984 9:-0.66120474 10:-0.94208888 
1 1:-0.25083794 2:-0.24004819 3:-0.18536807 4:-0.19540514 5:-0.4111994 6:1.8056647 7:-0.9041588 8:-0.75304043 9:-0.22630813 10:-0.10084921 
1 1:-0.38138529 2:-0.44076103 3:0.80412963 4:-0.10158792 5:-1.3392085 6:6.7848019 7:0.027551761 8:-2.4550084 9:-2.5417868 10:-1.6743277 
1 1:0.54336052 2:0.57337379 3:0.086894447 4:-0.25524921 5:-0.44039228 6:1.7180081 7:0.29233201 8:-0.030984164 9:-0.029338297 10:0.085458065 
1 1:-0.3547307 2:-0.35310829 3:-0.29537698 4:-0.33070359 5:-0.23312858 6:3.4272863 7:0.55086138 8:-1.814562 9:-1.0029426 10:-1.1242445 
1 1:-0.29504035 2:-0.27760702 3:-0.33683852 4:-0.30312484 5:-0.37179765 6:1.0085973 7:0.29697744 8:0.14881266 9:-0.0078823098 10:-0.059366486 
1 1:-0.52873649 2:-0.53482342 3:-0.37265121 4:-0.22325844 5:-0.23380921 6:5.4187679 7:0.050151379 8:-1.8935083 9:-1.2188996 10:-1.3614056 
1 1:-0.55431586 2:-0.55218881 3:-0.42740232 4:-0.34586211 5:0.034671268 6:5.1644329 7:0.87463292 8:-2.3026307 9:-1.2333269 10:-1.2940135 
1 1:-0.20019171 2:-0.25616877 3:0.75158394 4:-0.13304235 5:-1.2866339 6:6.4018636 7:0.27876418 8:-1.8118156 9:-2.0056391 10:-1.2551976 
1 1:0.16208593 2:0.16630691 3:-0.0081676615 4:-0.11350322 5:-0.46486883 6:1.8252052 7:-0.9983811 8:-0.80843783 9:-0.2400337 10:-0.16768191 
1 1:-0.095107039 2:-0.096274207 3:-0.12698268 4:-0.066351879 5:1.2598741 6:3.2344184 7:0.21525364 8:-0.99047736 9:-1.1802303 10:-1.090162 
1 1:0.088726688 2:0.073130071 3:0.14218864 4:-0.2344217 5:0.074528085 6:5.6266119 7:0.26721538 8:-0.75734172 9:-0.75095241 10:-0.84296294 
1 1:-0.74592192 2:-0.7429448 3:-0.25068643 4:-0.64655389 5:-0.11057902 6:6.4443663 7:-0.67289608 8:-1.8430869 9:-2.026274 10:-1.2848347 
1 1:0.32546623 2:0.35140611 3:0.083151481 4:-0.38466096 5:0.43584357 6:-1.4276543 7:-0.77544196 8:-0.14012966 9:0.12145419 10:0.65170871 
1 1:4.4999542e-05 2:-0.00036521942 3:0.020649864 4:-0.25595061 5:-0.83277223 6:5.5317588 7:1.7222932 8:-0.49676257 9:-0.91965443 10:-1.4240953 
1 1:0.021880346 2:-0.011561275 3:0.064518869 4:-0.24751261 5:-0.19467939 6:6.2542827 7:0.71897772 8:-0.68785518 9:-0.67145383 10:-0.79331937 
0.07980866490790062 1:4.7425442 2:4.7891274 3:6.054414 4:2.6428393 5:1.012884 6:-6.8856011 7:-5.2910478 8:-0.44649816 9:2.1888106 10:5.1508252 
1 1:-0.16196297 2:-0.18247402 3:-0.15345989 4:-0.42835827 5:-0.16634041 6:6.002928 7:0.47045304 8:-0.60037716 9:-0.6029224 10:-0.78171561 
1 1:-0.15966068 2:-0.17997234 3:-0.18683953 4:-0.19120233 5:-0.30450492 6:1.5879331 7:-0.89232878 8:-0.58612624 9:-0.14414906 10:-0.11538233 
1 1:-0.56920677 2:-0.59347365 3:-0.071026341 4:-0.47218649 5:-1.3552116 6:3.7415731 7:1.0903496 8:-1.0863675 9:-1.050539 10:-0.87024411 
1 1:0.026626517 2:0.022622686 3:0.068776 4:-0.33418166 5:0.084069356 6:5.9469297 7:0.37932554 8:-0.93670905 9:-0.89179057 10:-0.9799812 
1 1:-0.40970512 2:-0.39768166 3:-0.1641075 4:-0.13784469 5:-0.77123388 6:4.215644 7:0.80474248 8:-0.85816424 9:-0.85081712 10:-0.5918304 
1 1:-0.23805856 2:-0.23700428 3:-0.20075225 4:-0.19020512 5:-0.21514469 6:2.9968591 7:0.78257113 8:-0.42532074 9:-0.52840297 10:-0.43690581 
1 1:-0.39335352 2:-0.40461549 3:-0.41264501 4:-0.42249518 5:0.32884755 6:2.2283941 7:-0.17366399 8:-0.44499609 9:-0.3880654 10:-0.051862527 
1 1:-0.19133384 2:-0.19275226 3:-0.16507207 4:-0.3850072 5:-0.78273416 6:3.4900539 7:0.20113309 8:-0.51708977 9:-0.56095116 10:-0.46927836 
1 1:0.58608039 2:0.62330181 3:0.26332656 4:-0.21439205 5:-0.7113675 6:2.0604383 7:-0.66790713 8:-0.63782343 9:-0.1715187 10:0.16822007 
1 1:-0.094367144 2:-0.10535646 3:-0.038732717 4:-0.34545732 5:-0.10474326 6:5.9738851 7:0.53748314 8:-0.53033193 9:-0.56719157 10:-0.66217919 
1 1:-0.0062223029 2:-0.012233542 3:-0.20043811 4:-0.2485781 5:0.20567203 6:0.53527552 7:-0.91074354 8:-0.31723166 9:-0.088894228 10:0.55593666 
1 1:-0.13133874 2:-0.13371354 3:-0.10792075 4:-0.097890959 5:-0.35997874 6:2.1328472 7:-0.087134001 8:-0.34958325 9:-0.44073326 10:-0.388176 
1 1:-0.56154449 2:-0.65124414 3:0.47543137 4:-0.20733675 5:-1.5878515 6:6.6126985 7:0.27583717 8:-2.4170237 9:-2.6595357 10:-1.6945072 
1 1:0.18604539 2:0.22963587 3:0.45338866 4:-0.13368796 5:-0.8333103 6:2.7086599 7:-2.1349946 8:-0.8180308 9:-0.4570077 10:-0.32157134 
1 1:0.1228778 2:0.11790279 3:0.093929811 4:-0.03655391 5:-0.31879981 6:3.0113081 7:2.0238672 8:0.20603331 9:0.15628842 10:-0.20824026 
1 1:-0.10916835 2:-0.11567929 3:-0.24755364 4:-0.33846675 5:-0.09666677 6:1.9296614 7:-0.66147242 8:-0.64176498 9:-0.49304947 10:0.056919817 
0.00388640722216566 1:-0.2863134 2:-0.28254967 3:0.78477459 4:0.84032682 5:1.4592231 6:-7.891143 7:-9.6710461 8:-0.36802658 9:4.633909 10:7.9789536 
1 1:-0.20284049 2:-0.217536 3:-0.35848336 4:-0.27409172 5:-0.25943093 6:2.8713338 7:-0.61936636 8:-1.5212678 9:-0.92592287 10:-0.929034 
0.04678823738838195 1:0.99362266 2:0.97222352 3:2.9202846 4:3.7079009 5:1.3889853 6:-6.7178507 7:-4.5422013 8:0.19890867 9:0.50969313 10:5.2127401 
1 1:-0.28227065 2:-0.30736063 3:-0.32450185 4:-0.5790567 5:-0.3150619 6:6.338737 7:0.2174513 8:-0.75413674 9:-0.74270029 10:-0.89626893 
1 1:-0.56549284 2:-0.56941985 3:-0.57350934 4:-0.67557072 5:0.60175245 6:3.9074131 7:0.1703696 8:-0.84795264 9:-0.84670518 10:-0.58051779 
1 1:0.022769374 2:0.0090385571 3:0.057817195 4:-0.36378984 5:-0.087673068 6:6.0819033 7:0.41978232 8:-0.92354491 9:-0.90756493 10:-0.98639293 
1 1:0.69398914 2:0.70050482 3:0.7788489 4:0.82189452 5:0.83676337 6:-1.8287825 7:-0.058344339 8:0.99911889 9:0.82015528 10:0.79566681 
1 1:-0.09718633 2:-0.097604335 3:-0.051129619 4:-0.022497588 5:-0.24716839 6:0.96851623 7:-0.60627915 8:-0.60360275 9:-0.18384244 10:-0.15426555 
1 1:-2.1134255 2:-2.1045057 3:-1.911384 4:-0.9483689 5:-0.23825649 6:5.0662652 7:0.50419983 8:-1.751933 9:-1.0748141 10:-0.23308008 
1 1:-0.36526926 2:-0.36713174 3:-0.43177372 4:-0.38266675 5:-0.80921782 6:1.9476903 7:-0.50897977 8:-0.32344458 9:-0.23727979 10:0.37505911 
1 1:-0.23468428 2:-0.24283778 3:-0.17145788 4:-0.16892057 5:-0.45753323 6:1.8785298 7:-0.98847894 8:-0.73818394 9:-0.24038641 10:-0.086718701 
1 1:0.012131498 2:0.018008516 3:-0.02928249 4:-0.2767369 5:-0.73694341 6:5.165322 7:1.712457 8:-0.26944114 9:-0.80602161 10:-0.96792632 
1 1:-0.47872621 2:-0.53935782 3:0.38636484 4:-0.68928808 5:-1.824421 6:6.1663559 7:-0.17688818 8:-2.5114428 9:-2.9715492 10:-2.1515334 
1 1:0.2579664 2:0.26872384 3:0.30518688 4:-0.056572141 5:0.09600569 6:5.8942057 7:0.28371692 8:-0.65006562 9:-0.6616248 10:-0.82836668 
1 1:-0.14822961 2:-0.14627285 3:-0.097935284 4:-0.38435849 5:-0.77852988 6:6.1434448 7:1.5456316 8:-0.51895558 9:-1.0442865 10:-1.232376 
1 1:-0.50919468 2:-0.51837967 3:-0.48342731 4:-0.50674731 5:-0.27977087 6:0.22433266 7:-1.0065599 8:-0.27986333 9:-0.053311838 10:0.85607287 
1 1:-0.019112944 2:-0.038693444 3:-0.018115046 4:-0.30720178 5:-0.23703139 6:6.4351931 7:0.40837451 8:-0.81617369 9:-0.82774812 10:-0.88491834 
1 1:-0.40411714 2:-0.41287465 3:-0.49582026 4:-0.41984133 5:-0.85150268 6:1.6737889 7:-0.79923279 8:-0.51246941 9:-0.15196692 10:0.51900165 
0.08201379434618357 1:-1.8953002 2:-1.9424509 3:-1.2995359 4:-0.15003252 5:-0.17069921 6:5.2462636 7:-5.4255928 8:-6.8730242 9:-2.3691727 10:0.23471627 
1 1:0.14814739 2:0.12969359 3:0.067482222 4:-0.31699555 5:0.082023183 6:5.8233119 7:0.24810968 8:-0.82055092 9:-0.79468083 10:-0.89498733 
1 1:-0.26684454 2:-0.27041371 3:-0.39655489 4:-0.091953949 5:-0.43577086 6:5.5542234 7:0.41990123 8:-0.6627192 9:-0.85365528 10:-1.1354092 
1 1:-0.16745898 2:-0.17445505 3:-0.2735212 4:-0.34216303 5:0.46258378 6:1.0682049 7:-0.65970868 8:-0.45785368 9:-0.23391364 10:0.32162321 
1 1:-0.21445974 2:-0.20465957 3:0.4270398 4:0.15406916 5:-0.84062375 6:2.8616053 7:-0.93555316 8:-0.79736744 9:-0.63625664 10:-0.18786411 
1 1:-0.55494268 2:-0.55686882 3:-0.71646928 4:-0.3577873 5:0.11391204 6:2.5970427 7:0.41307384 8:-0.5553291 9:-0.94278367 10:-0.89832358 
1 1:0.030076376 2:0.00063323183 3:-0.078068206 4:-0.37014163 5:-0.12681114 6:6.1241929 7:0.22126651 8:-0.61308233 9:-0.648512 10:-0.8310151 
1 1:-0.002543385 2:0.0017194656 3:0.17189644 4:-0.21248345 5:-0.79563422 6:2.8165387 7:-1.0117198 8:-0.72672918 9:-0.64853212 10:-0.32469808 
1 1:0.19995093 2:0.19819464 3:-0.051385178 4:-0.19455231 5:-0.41529365 6:1.8282149 7:-0.9197896 8:-0.73672575 9:-0.2015246 10:-0.19774773 
1 1:-0.37218237 2:-0.37704201 3:-0.4585995 4:-0.57307263 5:0.28180094 6:3.2178489 7:-0.36936857 8:-0.69620656 9:-0.49517538 10:0.077436194 
1 1:-0.4109487 2:-0.43120521 3:-0.21692695 4:-0.26771452 5:-0.46080201 6:1.1172902 7:-0.73699225 8:-0.64200404 9:-0.20417739 10:-0.076181102 
1 1:-0.11370469 2:-0.066100511 3:-0.3587967 4:-0.56824336 5:-0.075275744 6:4.2883762 7:-0.21114951 8:-0.84182295 9:-0.81668181 10:-0.98306637 
1 1:0.022706607 2:0.0069643012 3:-0.33540819 4:-0.34914861 5:-0.58624528 6:2.4517157 7:0.35387556 8:-0.23526439 9:-0.43227188 10:-0.5636045 
1 1:0.013381941 2:0.028910919 3:-0.0070891022 4:-0.17373213 5:-0.40643472 6:1.6499522 7:-0.8982366 8:-0.73320975 9:-0.23205643 10:-0.13430105 
1 1:-0.28960679 2:-0.29443511 3:-0.36293823 4:-0.39980019 5:0.12583878 6:2.1473922 7:-0.87289879 8:-0.54915256 9:-0.27797425 10:0.56996157 
1 1:-0.16431398 2:-0.16579017 3:-0.13837572 4:-0.11575555 5:-0.41555647 6:2.2578642 7:-0.16837704 8:-0.39134355 9:-0.45029692 10:-0.39267776 
1 1:0.13133599 2:0.17923806 3:0.060588161 4:-0.44873848 5:-1.0271262 6:2.3115495 7:-2.199255 8:-0.76565181 9:-0.37155941 10:-0.20907646 
1 1:-0.65527808 2:-0.66541407 3:-0.1734324 4:-0.50433588 5:-1.3684215 6:3.8402123 7:1.1829105 8:-1.1103222 9:-1.1200748 10:-1.0330575 
1 1:-0.44777932 2:-0.45928004 3:-0.41749467 4:-0.20617921 5:-0.42237605 6:5.7329742 7:-0.48712066 8:-1.819016 9:-1.3505733 10:-1.5806984 
0.4861660780940505 1:3.1416581 2:3.1989991 3:3.7919018 4:1.1106898 5:0.31144819 6:-3.1918716 7:-0.47962889 8:-0.86220729 9:-0.33875692 10:0.93531641 
1 1:-0.3065503 2:-0.29567601 3:-0.10566583 4:-0.15242236 5:-0.35312795 6:6.5828481 7:0.32912108 8:-0.66899758 9:-0.60119947 10:-0.74355845 
1 1:-0.78202571 2:-0.80558846 3:-0.82118858 4:-0.70675812 5:-0.79519909 6:2.5864614 7:-0.1177059 8:-1.7121309 9:-0.13365064 10:0.13654482 
1 1:0.92171348 2:0.95656221 3:0.61885331 4:-0.012354207 5:-0.070492987 6:2.9334843 7:-1.4025467 8:-1.0168465 9:-0.45231279 10:0.075753371 
1 1:-0.079894678 2:-0.074743024 3:-0.16219372 4:-0.40045937 5:0.13395264 6:1.3090467 7:-0.92444927 8:-0.39869047 9:-0.19858983 10:0.40101632 
1 1:0.51417685 2:0.50802366 3:0.1365373 4:-0.078825361 5:0.65293915 6:4.2830466 7:0.92886806 8:-0.96219416 9:-1.5705418 10:-1.7184906 
1 1:-0.45406908 2:-0.45706061 3:-0.48302588 4:-0.38411317 5:-0.31843414 6:1.2852903 7:1.4972605 8:-0.25187056 9:-0.72861883 10:-0.62447869 
1 1:0.14472605 2:0.13835038 3:0.039278045 4:-0.1512492 5:-0.36481123 6:1.4266927 7:-0.9469701 8:-0.76692292 9:-0.21906523 10:-0.14061592 
1 1:-0.02571975 2:-0.020103679 3:-0.50564994 4:-0.34921452 5:-0.39248314 6:0.98115532 7:0.08218652 8:0.098369173 9:0.10353554 10:0.23310148 
1 1:0.081522053 2:0.071220531 3:-0.059754158 4:-0.24619263 5:-0.54778424 6:1.8806481 7:-1.0021928 8:-0.91645828 9:-0.39737644 10:-0.37548277 
1 1:0.027679877 2:0.028284534 3:0.10434432 4:0.18600283 5:-0.23426442 6:-3.253667 7:-0.5980672 8:0.43824137 9:0.56084134 10:1.1376706 
1 1:0.97041246 2:0.99063559 3:0.072621544 4:-0.31326884 5:-0.3080232 6:5.0279889 7:-0.17820152 8:-1.3384398 9:-1.5139566 10:-1.3222829 
1 1:-0.59004762 2:-0.5844644 3:-0.61421027 4:-0.70461746 5:0.07607507 6:2.6343142 7:-0.56428801 8:-0.81607585 9:-0.67681975 10:-0.19250987 
1 1:-0.65574354 2:-0.65863695 3:-0.67090294 4:-0.60113337 5:-0.76230973 6:1.6140212 7:0.19847147 8:-0.29150436 9:-0.07792121 10:0.091789257 
1 1:-0.14540979 2:-0.14644236 3:-0.19123738 4:-0.19411658 5:-0.43811351 6:1.9844117 7:-0.84825094 8:-0.67623641 9:-0.22277214 10:-0.07192799 
0.7042668263365542 1:-0.67411856 2:-0.71665826 3:0.39658718 4:-0.58017226 5:-1.8340676 6:6.4603151 7:-0.21653109 8:-2.6976512 9:-2.6928916 10:-1.470922 
1 1:-0.16688256 2:-0.16454258 3:-0.11680586 4:-0.35837577 5:-0.67600092 6:6.1558046 7:1.6065664 8:-0.51788784 9:-0.98447907 10:-1.1669382 
1 1:-0.35409411 2:-0.35234136 3:-0.43414391 4:-0.53297151 5:0.11552673 6:2.0712655 7:-0.9061988 8:-0.54594261 9:-0.4347795 10:0.38294844 
1 1:0.15893296 2:0.17059634 3:-0.044831483 4:-0.20189339 5:-0.40902357 6:1.4624075 7:-0.787111 8:-0.7575773 9:-0.17740907 10:-0.12147388 
1 1:-0.31569154 2:-0.31636626 3:-0.43182898 4:-0.58223914 5:0.098552466 6:2.3910774 7:-0.45995732 8:-0.62741348 9:-0.44741945 10:0.0069074369 
1 1:0.047491493 2:0.056577631 3:-0.1096048 4:-0.34401759 5:-0.63876646 6:5.811713 7:1.5147974 8:-0.24754467 9:-0.85674279 10:-1.0164319 
1 1:-0.89532687 2:-0.88358654 3:-0.62913193 4:0.27791883 5:-0.61984253 6:4.1546369 7:-0.51307752 8:-0.91700907 9:-0.90009105 10:-0.78653035 
1 1:0.51336493 2:0.51745398 3:-0.11143083 4:-0.33896802 5:-0.043909722 6:5.0995468 7:-0.63333135 8:-1.4863312 9:-1.6229772 10:-1.266443 
1 1:0.06357261 2:0.062049366 3:0.05373219 4:-0.08918785 5:-0.37037441 6:1.9831348 7:-1.0591807 8:-0.30946928 9:-0.49912277 10:-0.69478398 
0.4344314766776388 1:1.7533767 2:1.782091 3:2.20156 4:1.9488179 5:1.4168666 6:4.8609699 7:-1.6980362 8:-0.68544785 9:1.5190854 10:1.3371494 
1 1:-0.12391708 2:-0.12535803 3:-0.154813 4:-0.16066466 5:-0.47378078 6:1.8364432 7:-0.18923269 8:-0.34084573 9:-0.53249439 10:-0.39788541 
1 1:0.14689905 2:0.1380178 3:-0.3238427 4:-0.40760549 5:-0.58721104 6:1.1126195 7:0.2252773 8:-0.0071491315 9:0.010319 10:-0.0040433813 
1 1:-0.88135484 2:-0.89251284 3:-0.82032349 4:-0.62254371 5:-0.66684055 6:0.60046062 7:-0.028600215 8:-0.049667563 9:0.035982115 10:0.099624762 
1 1:0.11820972 2:0.089596576 3:0.082712018 4:-0.2596263 5:-0.059706816 6:6.280432 7:0.4574754 8:-0.64251252 9:-0.64565745 10:-0.85597061 
0.05621925227388112 1:-0.45540398 2:-0.44652257 3:-0.39061527 4:-0.29108002 5:-1.7382777 6:-8.0219654 7:-5.0076988 8:1.0789068 9:3.0648787 10:5.9625986 
1 1:-0.19178501 2:-0.1992357 3:-0.19341066 4:-0.19523903 5:-0.3845552 6:1.4807972 7:-0.9289957 8:-0.62415446 9:-0.17530889 10:-0.075792156 
1 1:-0.306861 2:-0.29934021 3:-0.18576126 4:-0.18794346 5:-0.40744177 6:1.6502974 7:-0.80215549 8:-0.68029822 9:-0.16233242 10:-0.052207075 
1 1:1.2530941 2:1.2752359 3:0.42866697 4:-0.0061309828 5:-0.11756545 6:3.7906121 7:-1.9389947 8:-1.5043145 9:-1.4481416 10:-0.98632696 
1 1:-0.46891667 2:-0.46913494 3:-0.493267 4:-0.56840227 5:0.21318359 6:2.1646148 7:-0.35255002 8:-0.53525755 9:-0.30228734 10:0.25627384 
1 1:-0.54709061 2:-0.55513594 3:-0.48806878 4:-0.39428626 5:0.11162284 6:4.9214124 7:0.84712205 8:-2.0357534 9:-1.2970405 10:-1.4783591 
1 1:-0.68907136 2:-0.72803394 3:0.35030207 4:-0.71915897 5:-1.6946269 6:5.0433681 7:-1.1460668 8:-2.5481104 9:-2.5306365 10:-1.508776 
1 1:-0.59713912 2:-0.60412362 3:-0.50429869 4:-0.361294 5:-0.16090428 6:5.2495927 7:0.7191493 8:-2.2314526 9:-1.2471326 10:-1.3346231 
1 1:-0.087309411 2:-0.091711877 3:-0.20739706 4:-0.30971719 5:0.58786696 6:3.0877616 7:-0.63813629 8:-0.84050667 9:-0.70129235 10:-0.16762666 
1 1:-0.045512487 2:-0.060234553 3:-0.11359485 4:-0.41112932 5:-0.29924448 6:6.1457365 7:0.86520966 8:-0.7817664 9:-0.69333187 10:-0.83802382 
1 1:0.021226828 2:0.019434769 3:0.047836424 4:-0.28265613 5:-0.14229545 6:6.1776441 7:0.69871379 8:-0.63872063 9:-0.57522185 10:-0.74020783 
1 1:0.017834571 2:0.023091944 3:0.067039672 4:-0.30245578 5:-0.091379254 6:5.8474233 7:0.5586716 8:-0.87585266 9:-0.83224923 10:-0.88059207 
1 1:-0.11830747 2:-0.12141209 3:-0.07953038 4:-0.20054858 5:-0.83632207 6:1.8387879 7:-0.73029323 8:-0.39673502 9:-0.18103744 10:0.55955226 
1 1:-0.12221955 2:-0.13377386 3:0.0031605755 4:-0.31383714 5:-0.07676998 6:5.7095288 7:0.7947963 8:-0.62485586 9:-0.60518252 10:-0.70706988 
1 1:-0.32034251 2:-0.35472776 3:0.6568025 4:-0.36398048 5:-1.5950772 6:5.7735275 7:-0.44317229 8:-2.4158203 9:-2.2894675 10:-0.71250285 
1 1:0.052380434 2:0.056393609 3:-0.016407267 4:-0.15599459 5:-0.37876805 6:1.4293094 7:-0.78962774 8:-0.73065869 9:-0.21421158 10:-0.10096874 
1 1:0.085297186 2:0.068115141 3:0.017195738 4:-0.27278367 5:-0.11232241 6:5.4927392 7:0.73269814 8:-0.52319606 9:-0.51364515 10:-0.71492009 
1 1:-0.25848296 2:-0.27912643 3:-0.28582217 4:-0.50148925 5:-0.094795166 6:-0.96741158 7:0.13586181 8:-0.75382778 9:-0.21580135 10:0.1321369 
1 1:-0.60123373 2:-0.62090011 3:0.18509045 4:-0.86163122 5:-1.8923685 6:5.6875106 7:-0.20436648 8:-1.990808 9:-1.9876617 10:-0.83589501 
1 1:-0.8035719 2:-0.82435973 3:-0.38348551 4:-0.40184469 5:-1.1440792 6:4.7265352 7:0.17541573 8:-1.1435058 9:-1.1256094 10:-0.84251838 
1 1:0.086169549 2:0.10100161 3:-0.078384353 4:-0.22824083 5:-0.44634532 6:5.3067159 7:1.5886242 8:-0.20787032 9:-0.91779013 10:-1.0729043 
1 1:-0.81746141 2:-0.77712736 3:-0.15110781 4:-0.26889723 5:-0.538676 6:3.7239582 7:0.39837558 8:-0.56490375 9:-0.80556299 10:-0.97717031 
1 1:0.1049322 2:0.10719048 3:-0.027592321 4:-0.19841538 5:0.81835556 6:-2.5087056 7:-0.46292514 8:-0.19583826 9:-0.1942129 10:0.41221767 
1 1:-0.026713357 2:-0.044618971 3:-0.060428416 4:-0.39954979 5:-0.15807905 6:5.7534239 7:0.67584832 8:-0.54403958 9:-0.46720689 10:-0.61757286 
1 1:1.1999288 2:1.182692 3:0.7196297 4:-0.067304621 5:-1.0557678 6:3.9782451 7:-1.1144136 8:-0.87913219 9:-0.87379871 10:-0.75590963 
1 1:-0.068155786 2:-0.06675886 3:0.039276858 4:-0.18427454 5:-0.81817668 6:1.7273935 7:-0.96169727 8:-0.40092679 9:-0.13503709 10:0.54875945 
0.09301604077798971 1:-1.1659166 2:-1.1887071 3:-1.2859692 4:-1.241885 5:-1.1656973 6:-4.7597107 7:-3.145374 8:0.44253518 9:3.6236846 10:5.8008385 
1 1:-0.0055361379 2:-0.027565075 3:0.013228418 4:-0.3214101 5:-0.043906929 6:6.1957296 7:0.43268543 8:-0.71168043 9:-0.68791802 10:-0.85046094 
1 1:-0.022833205 2:-0.022480128 3:-0.012129712 4:0.028159372 5:0.08789481 6:1.9498618 7:0.26683005 8:0.10915251 9:0.21047279 10:0.24993129 
1 1:-0.60797927 2:-0.61041508 3:-0.62759565 4:-0.12799929 5:2.5158653 6:5.9579313 7:0.72797016 8:-2.2863946 9:-2.5864541 10:-2.44638 
1 1:-0.072277878 2:-0.037007604 3:0.10507634 4:-0.24444134 5:-0.1732371 6:5.5559626 7:0.38557507 8:-0.9071147 9:-0.78087997 10:-0.87276109 
1 1:0.023639762 2:0.067873204 3:0.080537106 4:-0.40621332 5:-0.93687705 6:2.174432 7:-2.2101147 8:-0.69484125 9:-0.3187299 10:-0.10691489 
1 1:-0.19712542 2:-0.19313069 3:-0.48225488 4:-0.6195734 5:-1.017529 6:1.8077762 7:-0.59653653 8:-0.45672629 9:-0.25094277 10:0.55588079 
1 1:-0.1288152 2:-0.12470391 3:-0.091572563 4:-0.14356784 5:-0.35179849 6:1.2596812 7:-0.4715844 8:-0.34737412 9:-0.067284775 10:0.11509422 
1 1:-0.53495994 2:-0.55859339 3:-0.10394139 4:-0.34020789 5:-0.95855333 6:5.2493213 7:0.21662263 8:-1.1555046 9:-1.186917 10:-1.1550329 
1 1:0.20950406 2:0.21792384 3:-0.029555828 4:-0.12964223 5:-0.40074642 6:1.4139532 7:-0.85611932 8:-0.81909971 9:-0.27055985 10:-0.090704743 
1 1:-0.34379258 2:-0.34650482 3:-0.42077919 4:-0.51702074 5:0.60040123 6:3.1744494 7:-0.39308721 8:-0.72239298 9:-0.61742096 10:-0.29025575 
1 1:-1.8059919 2:-1.8539286 3:-1.4120802 4:-1.0831226 5:-0.47174612 6:5.0055409 7:-0.88454848 8:-1.6884841 9:-0.87785867 10:-0.20223747 
1 1:-0.046955969 2:-0.058371846 3:-0.0045446558 4:-0.31432676 5:-0.25530683 6:6.6580654 7:0.16906221 8:-0.69157592 9:-0.68307679 10:-0.85681418 
1 1:-0.092152251 2:-0.0726327 3:0.046222395 4:-0.24823494 5:-0.2642501 6:6.5719726 7:0.37144556 8:-0.75743883 9:-0.69113555 10:-0.85383454 
1 1:0.032784015 2:0.0091306607 3:-0.01259666 4:-0.33406272 5:-0.1590126 6:5.8322866 7:0.86480023 8:-0.62313691 9:-0.63815021 10:-0.75088992 
1 1:-0.034089322 2:-0.024981484 3:-0.2099903 4:-0.28073576 5:-0.3170451 6:0.93782486 7:-0.19019996 8:-0.031841237 9:0.45025206 10:0.087574339 
1 1:-0.22888829 2:-0.24077923 3:-0.22540284 4:-0.18687945 5:-0.3139616 6:1.5052947 7:-0.78348593 8:-0.71594043 9:-0.22722231 10:-0.12437444 
1 1:-0.10010188 2:-0.11800126 3:-0.2453394 4:0.073502013 5:-0.038246027 6:1.5566757 7:0.30897799 8:0.1117647 9:0.11458844 10:0.19378992 
1 1:0.11730245 2:0.14598185 3:-0.087483878 4:-0.46390882 5:-0.69096857 6:2.2017755 7:-0.49572102 8:-0.23639214 9:-0.10434321 10:-0.063762619 
1 1:0.088867846 2:0.078794549 3:0.0061563189 4:-0.34254769 5:0.077582907 6:6.0036428 7:0.20840657 8:-0.84244178 9:-0.8792107 10:-1.0066887 
1 1:-0.040008891 2:-0.024893522 3:-0.013236196 4:-0.27473829 5:-0.82074746 6:5.8473304 7:1.7200986 8:-0.57910782 9:-1.0289253 10:-1.305936 
1 1:-0.019719169 2:-0.012419079 3:-0.014389142 4:-0.24010463 5:-0.70287191 6:5.8940786 7:1.7938471 8:-0.51215843 9:-1.0360151 10:-1.3425393 
1 1:-0.64141817 2:-0.64589108 3:-0.14158814 4:-0.73623667 5:-0.2204772 6:6.2640228 7:0.23893602 8:-1.4767035 9:-1.5945088 10:-1.5156433 
1 1:-0.13197367 2:-0.13360178 3:0.44875168 4:0.17153702 5:1.1486949 6:1.739592 7:0.054979902 8:-0.9473235 9:-0.96462058 10:-0.57603674 
1 1:-0.11613178 2:-0.099858035 3:-0.43262238 4:-0.053163476 5:-0.24104715 6:1.6046172 7:0.23877495 8:0.21141188 9:0.32250666 10:0.40635976 
1 1:0.48932116 2:0.52135397 3:-0.10192419 4:-0.58316093 5:-0.853694 6:2.6971635 7:-0.32094814 8:-1.00178 9:-0.65391782 10:0.17560094 
1 1:0.62745974 2:0.70189146 3:0.069919496 4:-0.49222698 5:-0.9935498 6:2.5897997 7:-0.73620197 8:-0.52553069 9:-0.18536307 10:0.011293463 
1 1:-0.44968056 2:-0.44636616 3:0.42933362 4:-0.8062743 5:-1.8120184 6:6.4490249 7:-0.32384797 8:-2.6706161 9:-2.91887 10:-1.2719392 
1 1:-0.21739994 2:-0.21173947 3:-0.1930384 4:-0.19304811 5:-0.42090614 6:1.7793449 7:-0.86550843 8:-0.66995071 9:-0.15829462 10:-0.051789603 
1 1:-0.21955853 2:-0.20472618 3:-0.13393367 4:-0.1674385 5:-0.48124437 6:4.0530092 7:-0.40390762 8:-0.48469554 9:-0.31846301 10:-0.24076934 
1 1:-0.18178542 2:-0.16506384 3:-0.081912902 4:-0.086725046 5:-0.34166428 6:1.5304166 7:-0.8400095 8:-0.6958793 9:-0.16767603 10:-0.047133245 
1 1:-0.31641948 2:-0.29874823 3:-0.12033169 4:-0.09195842 5:-0.83851163 6:3.6726922 7:-0.52146141 8:-1.0558038 9:-0.66525312 10:-0.31316983 
1 1:0.066650474 2:0.069452007 3:-0.17045717 4:-0.33849299 5:-0.49412521 6:5.0459137 7:1.4683092 8:-0.38285159 9:-0.89175781 10:-1.1167432 
1 1:-0.13885579 2:-0.15371467 3:-0.11519804 4:-0.1148041 5:-0.33839089 6:1.5247913 7:-0.83732239 8:-0.58077875 9:-0.11798944 10:-0.13981765 
1 1:-0.1062016 2:-0.10992815 3:-0.041157729 4:-0.274851 5:0.68297648 6:5.9980389 7:0.44579824 8:-1.2126817 9:-1.6485519 10:-1.6794891 
1 1:-0.26443233 2:-0.28310742 3:-0.1922321 4:-0.10436117 5:-0.39615332 6:1.6090071 7:-0.80713207 8:-0.72017599 9:-0.11240479 10:0.050607447 
1 1:-0.51778603 2:-0.51899064 3:-0.64509599 4:-0.4972063 5:-1.0037785 6:1.4493615 7:-0.78132288 8:-0.50160624 9:0.098686521 10:0.27682346 
1 1:-0.76498083 2:-0.74824479 3:-0.22859871 4:-0.12456066 5:-0.97929341 6:4.2074439 7:0.45328403 8:-0.67726368 9:-0.77248338 10:-0.58655262 
1 1:0.14725412 2:0.14699352 3:0.0038214354 4:-0.13829244 5:-0.3884954 6:1.7850349 7:-0.83838625 8:-0.73757641 9:-0.24333489 10:-0.18225789 
0.02779459336207971 1:0.060440606 2:0.059315487 3:0.044327572 4:-0.13081775 5:2.1029691 6:-5.2716809 7:-6.1722322 8:-2.4293569 9:1.1230602 10:2.9954007 
1 1:-0.62498781 2:-0.6171039 3:-0.61351006 4:-0.69967353 5:0.92228916 6:7.0416176 7:1.5119399 8:-1.6869547 9:-2.0152751 10:-2.1230671 
1 1:0.38250512 2:0.36178496 3:0.31520782 4:0.0045911793 5:0.38200952 6:5.1018413 7:0.52302484 8:-0.51538521 9:-0.48056806 10:-0.57041189 
1 1:-0.2908579 2:-0.28777086 3:0.26669599 4:-0.089601926 5:-0.93949943 6:3.3337503 7:-1.1517897 8:-0.76820755 9:-0.54558893 10:-0.069169476 
1 1:0.61052542 2:0.6673077 3:0.024326879 4:-0.2376736 5:-0.75193404 6:1.7213851 7:-0.57799985 8:-0.55208074 9:-0.049333561 10:0.16024525 
1 1:-1.1349852 2:-1.1203104 3:-1.2976763 4:-1.319624 5:-1.2374136 6:1.9576114 7:-0.31816601 8:-0.65153397 9:-0.56498931 10:0.72621352 
1 1:-0.33890624 2:-0.36482538 3:-0.042904018 4:-0.38555777 5:-0.80784939 6:0.29305157 7:-0.59244995 8:-0.234921 9:-0.3094294 10:-0.54354864 
1 1:1.1968226 2:1.2030863 3:0.46057336 4:0.021882288 5:-0.60800039 6:1.9734506 7:-1.5447455 8:-0.64059913 9:-0.60439655 10:-0.22148428 
1 1:0.080503118 2:0.05904947 3:0.045050355 4:-0.24624289 5:-0.17286171 6:5.9101637 7:0.74376773 8:-0.65024135 9:-0.6701982 10:-0.81592025 
1 1:-0.37277095 2:-0.35771341 3:-0.18544404 4:-0.13359102 5:-0.3876564 6:1.6676378 7:-0.90473458 8:-0.67594721 9:-0.19234053 10:-0.079027738 
0.04763589442353423 1:-0.33748372 2:-0.34768779 3:-1.2360349 4:-1.0610132 5:-0.5155887 6:9.661301 7:9.3788613 8:-2.5591265 9:-5.0598131 10:-5.9974093 
1 1:-0.14374086 2:-0.13989899 3:-0.2311051 4:-0.2122484 5:-0.4950061 6:1.5365081 7:-0.11650507 8:-0.16150549 9:-0.54707138 10:-0.63858786 
1 1:-0.33881173 2:-0.34071601 3:-0.44723596 4:-0.55047209 5:-0.026695545 6:1.9549087 7:-0.78518004 8:-0.5535086 9:-0.31109512 10:0.26050497 
1 1:-0.31764881 2:-0.3210751 3:-0.3691312 4:-0.44306788 5:0.49050265 6:2.7265102 7:-0.40467528 8:-0.63397651 9:-0.53821594 10:-0.18766734 
1 1:0.10741564 2:0.13505555 3:0.288854 4:-0.30405198 5:-0.76585652 6:2.7066176 7:-0.19327586 8:-0.28072933 9:-0.8147494 10:-0.44694279 
1 1:-0.41646512 2:-0.42877254 3:-0.56143813 4:-0.67580862 5:0.061625585 6:2.0647036 7:-0.46467553 8:-0.6353369 9:-0.49935251 10:0.12427883 
1 1:0.2844047 2:0.34883093 3:-0.33889068 4:-0.7224562 5:-1.1911028 6:2.267146 7:-0.86435559 8:-0.49147382 9:-0.4377055 10:0.024693465 
1 1:-0.43689858 2:-0.43052335 3:-0.53498525 4:0.0028731082 5:0.047471197 6:-1.0031289 7:-0.77460701 8:-0.3832229 9:0.032995148 10:0.60890938 
1 1:0.40649587 2:0.4043928 3:0.030434536 4:-0.19962737 5:-0.6792142 6:2.091416 7:-0.20681813 8:-0.27033599 9:-0.31452449 10:-0.33371437 
1 1:0.47965223 2:0.47815507 3:0.22284027 4:-0.11795698 5:-0.74573661 6:2.2645489 7:-0.18054948 8:-0.32116661 9:-0.2710069 10:-0.25130575 
1 1:1.943421 2:1.982232 3:2.0445213 4:0.83535269 5:-1.4441156 6:5.0018868 7:-0.77341407 8:-2.4807234 9:-2.8352068 10:-0.80034098 
1 1:-0.46201617 2:-0.47554971 3:-0.44125736 4:-0.33551881 5:-0.1447562 6:4.0364615 7:0.23887864 8:-1.55986 9:-0.87245591 10:-0.97214884 
1 1:0.062164095 2:0.076297331 3:-0.070224993 4:-0.3414682 5:-0.69259181 6:4.4155157 7:1.4303979 8:-0.43504149 9:-0.86441265 10:-1.0749262 
1 1:0.12605184 2:0.15031445 3:0.15137738 4:-0.32743588 5:-0.91472921 6:2.7223785 7:-0.77563381 8:-0.45447692 9:-0.27033423 10:-0.079662765 
1 1:0.15208728 2:0.15181939 3:0.045278506 4:-0.20826113 5:-0.51353513 6:1.9468566 7:-0.93426615 8:-0.88577671 9:-0.29213498 10:-0.11144529 
1 1:-0.19132744 2:-0.19349583 3:-0.32379117 4:-0.31286641 5:-0.27523217 6:0.83088529 7:0.18817228 8:0.2157558 9:0.23971664 10:0.28537587 
1 1:-0.42000783 2:-0.41814493 3:-0.046708261 4:-0.60382272 5:-0.80035145 6:5.4362143 7:0.22254012 8:-1.1918732 9:-1.285234 10:-1.1139613 
1 1:0.60981641 2:0.6054272 3:0.57826615 4:0.46246904 5:-0.052529197 6:5.721705 7:2.2054993 8:0.70627959 9:-0.021579172 10:-0.72832524 
1 1:-0.24662213 2:-0.24414958 3:-0.36904136 4:-0.60625872 5:0.14451861 6:3.5037713 7:-0.0045672066 8:-0.85729422 9:-0.81763509 10:-0.57870921 
1 1:-0.32665125 2:-0.31414296 3:-0.2666629 4:-0.41521197 5:-0.5567989 6:5.1496104 7:0.21747661 8:-0.47357884 9:-0.72451961 10:-1.0160779 
1 1:0.27747568 2:0.26198603 3:-0.0045764115 4:-0.2072853 5:-0.43988036 6:2.0825819 7:-0.84806886 8:-0.74312654 9:-0.27477881 10:-0.25229943 
1 1:0.18782119 2:0.21909554 3:0.24346381 4:-0.29647748 5:-0.71216897 6:2.0084807 7:-0.34191443 8:-0.34069175 9:-0.11832175 10:-0.089886002 
1 1:0.041857289 2:0.034826906 3:0.075672643 4:-0.14775943 5:-0.62882562 6:5.7416062 7:1.821324 8:-0.42783367 9:-1.0045085 10:-1.3049773 
1 1:-0.36582821 2:-0.36717693 3:-0.46852819 4:-0.62981038 5:0.27931786 6:3.127315 7:-0.42787174 8:-0.8729929 9:-0.72895276 10:-0.33099186 
1 1:0.15431647 2:0.19433897 3:0.040224596 4:-0.54196187 5:-0.93131348 6:2.309383 7:-0.84073167 8:-0.47323067 9:-0.39871789 10:-0.010011442 
1 1:-0.26343088 2:-0.28364891 3:-0.38680759 4:-0.28367033 5:-0.36432521 6:4.6641812 7:0.11172802 8:-1.897064 9:-1.1428644 10:-1.2978165 
1 1:0.17645516 2:0.18547963 3:0.046184931 4:-0.087108169 5:0.47673343 6:3.7776744 7:0.58152999 8:-0.81198816 9:-0.85110358 10:-0.99070682 
1 1:-0.12639009 2:-0.12470531 3:0.0040750879 4:-0.13322636 5:-0.24520315 6:0.83651035 7:-0.86892034 8:-0.56953884 9:-0.089541127 10:-0.062570456 
0.003862588429641192 1:0.24843696 2:0.2288689 3:-0.6666717 4:-0.76609645 5:-0.61618939 6:8.2228443 7:9.9952276 8:0.57884009 9:-1.8773519 10:-2.6728225 
1 1:-0.15055098 2:-0.15231602 3:-0.14261178 4:-0.13544592 5:-0.32288326 6:1.3921593 7:-0.88236514 8:-0.55279033 9:-0.14406018 10:-0.052531727 
0.05962611835652972 1:-0.79804811 2:-0.82911008 3:0.47006472 4:-1.2502941 5:7.0477496 6:10.531903 7:-0.45864224 8:-4.206105 9:-5.5743375 10:-5.3081779 
1 1:-0.17339388 2:-0.17831699 3:-0.097391152 4:-0.041308843 5:-0.47626358 6:2.2632347 7:-0.34106676 8:-0.38455849 9:-0.51581714 10:-0.34722408 
1 1:0.2630275 2:0.23816583 3:0.17436019 4:-0.25499847 5:0.016787693 6:5.7941954 7:0.03551564 8:-0.76149317 9:-0.79641119 10:-0.86834243 
1 1:0.074937785 2:0.092079084 3:0.16526281 4:-0.25983692 5:0.01377977 6:6.0907709 7:0.17632204 8:-0.82553823 9:-0.82154196 10:-0.8880093 
1 1:-0.21990137 2:-0.21675014 3:-0.19188295 4:-0.1698209 5:-0.39143464 6:2.97222 7:0.55166975 8:-0.3603309 9:-0.37833108 10:-0.25654305 
0.03809558295226962 1:3.6012309 2:3.6469966 3:4.1246499 4:1.7471427 5:1.5323775 6:-4.9154812 7:-4.7427047 8:-1.0923067 9:0.34005258 10:2.795353 
1 1:-0.39315088 2:-0.370921 3:-0.22641187 4:-0.39569141 5:-0.91772852 6:1.5302886 7:-0.94223365 8:-0.6806427 9:-0.4160315 10:0.33922459 
0.2765928396746153 1:0.93982746 2:0.92081883 3:1.9284092 4:1.4618979 5:0.68163037 6:-2.4765581 7:0.35749109 8:-0.82650493 9:-0.6814741 10:0.16458216 
1 1:0.11857673 2:0.18471757 3:-0.19230719 4:-0.72246289 5:-0.78133907 6:5.687121 7:0.19243683 8:-0.81602345 9:-1.0124972 10:-1.2672521 
1 1:0.096135126 2:0.078261319 3:0.094418431 4:-0.30705251 5:0.012115226 6:5.7783941 7:0.3910761 8:-0.89689119 9:-0.82655405 10:-0.91400355 
1 1:0.12450152 2:0.12220207 3:0.15054846 4:0.14384077 5:-0.052612181 6:1.9294505 7:0.21567419 8:-0.062280275 9:0.17206679 10:0.14179556 
1 1:-0.26048507 2:-0.26101026 3:-0.29520618 4:-0.23322596 5:-0.51750224 6:2.149971 7:-1.0313571 8:-0.88394999 9:-0.31005591 10:-0.18119599 
0.05673865099414058 1:4.1553195 2:4.240478 3:5.5656674 4:2.1818236 5:0.061123323 6:-6.7635768 7:-4.5740218 8:-0.41758228 9:1.699822 10:5.5209216 
1 1:0.019849828 2:-0.027397383 3:-0.14846912 4:-0.14744217 5:-0.29756813 6:1.262255 7:-0.81643608 8:-0.60216707 9:-0.081233606 10:-0.049217364 
1 1:-0.50739762 2:-0.50305779 3:-0.56174989 4:-0.71827686 5:0.64366785 6:3.4815373 7:0.17499445 8:-0.86946702 9:-0.89774766 10:-0.537339 
1 1:-0.34286743 2:-0.34788536 3:-0.14269515 4:-0.13291859 5:-0.44568871 6:1.7638484 7:-0.73468284 8:-0.73339424 9:-0.20183124 10:-0.079110738 
0.7721481345195086 1:0.14312851 2:0.13123817 3:0.016517517 4:0.42231012 5:0.83539245 6:-2.5630251 7:-0.23391016 8:-1.1204851 9:-0.85216589 10:-0.15227518 
1 1:-0.28376301 2:-0.29051002 3:-0.22164508 4:-0.21434404 5:-0.39823939 6:1.422081 7:-0.80081235 8:-0.65990982 9:-0.17454471 10:-0.10405553 
1 1:0.30822378 2:0.35067347 3:0.038016781 4:-0.25626472 5:-0.85670178 6:2.3885722 7:-0.4477028 8:-0.50398906 9:0.068033403 10:0.26379824 
1 1:-0.68037443 2:-0.69189416 3:-0.13260499 4:-0.72315563 5:-0.2476477 6:6.1407222 7:0.47259258 8:-1.3201673 9:-1.4525854 10:-1.3743637 
1 1:-0.12930124 2:-0.10847875 3:-0.17220238 4:-0.33788844 5:-0.73088718 6:5.7093739 7:1.4579559 8:-0.32072991 9:-0.92317872 10:-1.1177531 
1 1:-0.22227214 2:-0.22597606 3:-0.1634679 4:-0.19229041 5:-0.37653446 6:1.639866 7:-0.83982832 8:-0.75915272 9:-0.22100755 10:-0.084844879 
1 1:0.96732311 2:0.98658487 3:0.65844207 4:-0.25125556 5:-0.96392347 6:1.4996044 7:-0.81686206 8:-0.56671235 9:-0.43006167 10:0.067978489 
1 1:-0.0080439131 2:-0.0079050315 3:-0.007359032 4:-0.27869845 5:-0.61347091 6:5.1397605 7:1.7387356 8:-0.40512127 9:-0.95374435 10:-1.0898698 
1 1:-0.23591502 2:-0.23186741 3:-0.47680407 4:-0.47492482 5:-0.52043447 6:1.3376819 7:0.24801375 8:-0.14326941 9:-0.25652622 10:-0.47225167 
1 1:-0.086090745 2:-0.078735363 3:-0.062869448 4:-0.44122252 5:-0.053545896 6:6.2261386 7:0.45419797 8:-1.0154497 9:-1.0153835 10:-1.140344 
1 1:-0.28211328 2:-0.27836089 3:-0.31052067 4:-0.36425896 5:-0.44931174 6:0.73935089 7:-0.1997086 8:-0.44147952 9:-0.47841964 10:-0.38660378 
1 1:0.39423184 2:0.41531322 3:-0.0043376979 4:-0.47963911 5:-1.0615903 6:2.9502469 7:0.46963795 8:-0.61356504 9:-0.68543948 10:-0.66484586 
0.006789777278505854 1:2.1469876 2:2.1505225 3:2.2716102 4:1.5667633 5:-3.007561 6:-5.9338203 7:-2.8941143 8:-0.042243093 9:1.2892422 10:2.1660848 
1 1:-0.077013897 2:-0.085504795 3:-0.43754006 4:-0.47463085 5:-0.73793146 6:5.6813601 7:0.34582113 8:-0.53060413 9:-0.69763466 10:-0.97779226 
1 1:-0.34443362 2:-0.35025615 3:-0.41458918 4:-0.39306895 5:-0.076776288 6:3.5329787 7:-0.35873104 8:-1.8088068 9:-1.0790111 10:-1.0773816 
1 1:-0.41457628 2:-0.40516948 3:-0.47659705 4:-0.59904765 5:0.0094189871 6:1.0914791 7:-0.72732708 8:-0.4808249 9:-0.17816315 10:0.3988061 
1 1:-0.22711331 2:-0.22192256 3:0.4619963 4:0.17900769 5:-0.98609303 6:3.2378217 7:-0.93131796 8:-0.92145519 9:-0.62877297 10:-0.085440562 
1 1:-0.20033346 2:-0.20621478 3:-0.15478468 4:-0.16539925 5:-0.41955997 6:1.3772241 7:-0.82436355 8:-0.52424729 9:-0.09136945 10:-0.05328948 
1 1:-0.46344526 2:-0.4682359 3:-0.40544631 4:-0.25109748 5:-0.26200264 6:5.4572176 7:-0.41419374 8:-1.8562437 9:-1.2856684 10:-1.4270094 
1 1:-0.36642002 2:-0.38058936 3:-0.4484713 4:-0.66344432 5:0.19899965 6:2.7677562 7:-0.41553178 8:-0.72816055 9:-0.53864453 10:0.019128182 
1 1:0.12714971 2:0.1394992 3:0.2177238 4:0.26369921 5:-0.0095505181 6:2.0813316 7:0.54968048 8:-0.039691734 9:0.025162864 10:-0.012910313 
1 1:-0.51195418 2:-0.4749563 3:0.0029025411 4:-0.79664707 5:-1.4368487 6:1.979731 7:-1.7407273 8:-1.4899584 9:0.028702746 10:0.81906043 
1 1:-0.17803709 2:-0.14244954 3:0.10675062 4:-0.12357851 5:-0.21452322 6:5.8619266 7:0.57783356 8:-0.78396061 9:-0.77112926 10:-0.86226774 
1 1:0.038956033 2:0.030471554 3:0.029587404 4:-0.30018502 5:0.020285988 6:6.2960531 7:0.20520416 8:-0.81750784 9:-0.82647706 10:-0.99603578 
1 1:-0.18122775 2:-0.16751347 3:0.19174381 4:-0.27966654 5:-0.99950248 6:2.7834262 7:-0.22334309 8:-0.53843857 9:-0.72927393 10:-0.35360941 
1 1:-0.046117965 2:-0.05934211 3:-0.057289814 4:-0.33170678 5:-0.26374636 6:6.0854582 7:0.95431229 8:-0.65544297 9:-0.62542966 10:-0.79202732 
1 1:-0.50776122 2:-0.51356684 3:-0.65360621 4:-0.63100033 5:-0.78682478 6:2.4643508 7:0.19477594 8:-0.51673121 9:-0.70717413 10:-0.61491443 
1 1:-0.17988885 2:-0.1969914 3:0.38801949 4:0.30380944 5:-0.58417592 6:2.8327968 7:0.58747692 8:-0.58823054 9:-0.66416777 10:-0.57613599 
1 1:0.1299983 2:0.16853959 3:0.064645951 4:-0.57813816 5:-0.98160962 6:2.2844339 7:-0.47895638 8:-0.39618068 9:-0.14358532 10:-0.097859285 
1 1:-0.60736914 2:-0.63212754 3:-0.09102817 4:-0.41779639 5:-1.1830844 6:4.2267494 7:1.1327438 8:-1.1060993 9:-1.1675005 10:-1.1214465 
1 1:-0.28943831 2:-0.29482729 3:-0.39207685 4:-0.43791468 5:0.49898504 6:2.8854879 7:-0.32873328 8:-0.43561014 9:-0.26016303 10:0.11927527 
1 1:0.043092937 2:0.0444717 3:0.057124395 4:-0.36804597 5:-0.19868488 6:5.8267145 7:0.60625594 8:-0.92801301 9:-0.86678633 10:-1.0200455 
1 1:-0.023664592 2:-0.014217688 3:-0.023749543 4:-0.0028752426 5:0.074503208 6:5.11265 7:1.0253628 8:-0.90647694 9:-1.3004844 10:-1.9599975 
1 1:-0.77072299 2:-0.76682194 3:-0.2121912 4:-0.062912478 5:-1.0411743 6:4.3011142 7:-0.270047 8:-0.90832417 9:-0.67927903 10:-0.34894266 
1 1:1.2480988 2:1.2934144 3:1.3897795 4:0.18028616 5:-0.77816174 6:2.9565964 7:-0.81077189 8:-1.511868 9:-0.80745172 10:-0.47668386 
1 1:0.12068824 2:0.11363902 3:0.0055387259 4:-0.15643403 5:-0.44618412 6:1.4656511 7:-0.82947529 8:-0.66929499 9:-0.19427101 10:-0.12898797 
0.07684829604341796 1:2.4218085 2:2.3902485 3:3.3538833 4:4.9761762 5:4.484778 6:-5.8610197 7:-6.6698419 8:-0.39801523 9:2.5543281 10:5.6531907 
1 1:-0.17670207 2:-0.18119168 3:-0.11868034 4:-0.14243697 5:-0.32923068 6:0.90965328 7:-0.07983663 8:-0.21727854 9:-0.20343425 10:-0.19937328 
1 1:0.00063329207 2:0.013625883 3:-0.0015646006 4:-0.25131825 5:-0.8241441 6:5.4496439 7:1.6979903 8:-0.52507871 9:-0.98853258 10:-1.257388 
0.1167512879867809 1:1.1021303 2:1.1328827 3:-0.59262166 4:-2.0849788 5:-5.4641399 6:-6.8865575 7:-1.5160741 8:0.56128395 9:1.3657154 10:1.9123566 
1 1:-0.56435956 2:-0.6067131 3:-0.20105641 4:-0.33419045 5:-1.3265383 6:4.2963969 7:0.034914977 8:-1.0614777 9:-0.95729439 10:-0.78642544 
1 1:-0.50277318 2:-0.48037064 3:-0.12869781 4:-0.092353711 5:-0.79998893 6:4.556385 7:0.21252882 8:-1.0968296 9:-0.84109807 10:-0.49844073 
0.06263165074941519 1:-0.96791762 2:-0.98133457 3:-1.0038611 4:-0.71250009 5:0.16564394 6:7.0643579 7:2.0721791 8:-7.4868735 9:-7.3865799 10:-3.2563487 
1 1:0.078132271 2:0.065443345 3:0.070757352 4:-0.27064014 5:0.022756696 6:5.8367287 7:0.66852605 8:-0.70885828 9:-0.74876318 10:-0.902435 
1 1:0.15275698 2:0.12867993 3:0.076780296 4:-0.28710746 5:-0.088430292 6:5.9387954 7:0.5976932 8:-0.58074792 9:-0.59507183 10:-0.77045397 
1 1:1.2487437 2:1.2647485 3:0.37436933 4:-0.052264136 5:-0.013277928 6:3.0902954 7:-1.8802254 8:-1.5289782 9:-1.5022037 10:-1.2427564 
1 1:-0.49431124 2:-0.49791715 3:-0.1984579 4:-0.0080330744 5:1.2898883 6:6.0033488 7:0.15561159 8:-1.7886843 9:-2.2726216 10:-2.2617464 
1 1:0.13745925 2:0.19617116 3:-0.15004207 4:-0.35609769 5:0.78856257 6:5.6815704 7:0.37478734 8:-1.1922121 9:-1.7607287 10:-1.7624523 
1 1:0.1680559 2:0.16648146 3:0.15086529 4:-0.245297 5:-0.1186595 6:5.9207101 7:0.37408825 8:-0.86631949 9:-0.83940783 10:-0.90417657 
1 1:-0.1747571 2:-0.14952264 3:-0.45913219 4:-0.24869743 5:-0.080821722 6:0.98543584 7:0.14587256 8:0.087442404 9:0.15785579 10:0.20267641 
0.1822621025894304 1:0.35470355 2:0.25970533 3:0.51448674 4:0.24156973 5:-0.21825159 6:1.7959814 7:-8.9625445 8:-8.564987 9:0.7306982 10:5.0928667 
1 1:0.17843396 2:0.17335729 3:0.084422431 4:-0.089863881 5:-0.26929031 6:1.1698079 7:-0.79512012 8:-0.71495659 9:-0.16655348 10:-0.11906699 
1 1:-0.41484583 2:-0.40872391 3:-0.41215636 4:-0.56492061 5:0.030163613 6:1.5810014 7:-0.71796622 8:-0.4437503 9:-0.26099483 10:0.22821662 
1 1:-0.35188708 2:-0.37285532 3:-0.36224777 4:-0.24942413 5:-0.38146557 6:1.6524648 7:-0.82307888 8:-0.68855604 9:-0.24856947 10:-0.10052222 
1 1:-0.17161962 2:-0.17401441 3:0.053725176 4:-0.22942121 5:-0.76653555 6:1.8678278 7:-0.53003814 8:-0.42362161 9:-0.048993091 10:0.58183221 
1 1:0.32957364 2:0.35300032 3:0.067034625 4:-0.013158186 5:-0.77891318 6:1.7237584 7:-1.2418511 8:-0.48438547 9:-0.31107731 10:0.01384162 
0.02885612407516069 1:-0.51282086 2:-0.54394042 3:-0.93954157 4:-0.29546547 5:-0.35627629 6:8.3095252 7:9.3633359 8:-2.1596514 9:-5.2664515 10:-6.1542498 
1 1:0.11612943 2:0.1366533 3:0.2004424 4:-0.15364768 5:0.039709307 6:5.825696 7:0.31840236 8:-0.81087393 9:-0.72757034 10:-0.83708181 
1 1:-0.17735799 2:-0.19302182 3:-0.22487334 4:-0.2196473 5:-0.46123128 6:1.8969984 7:-0.87149958 8:-0.69191133 9:-0.20246756 10:-0.22301871 
0.08354304941462433 1:-2.4171799 2:-2.433215 3:-2.2817985 4:-1.913525 5:-2.194491 6:7.3099845 7:3.9712725 8:-6.3803705 9:-8.3191425 10:-3.5450462 
0.03699284333413965 1:-0.64455648 2:-0.65958904 3:-0.91814433 4:-0.78558287 5:-0.38593991 6:7.7872013 7:9.1490587 8:0.90625927 9:-0.99125329 10:-2.8073947 
1 1:-0.53740142 2:-0.61004706 3:0.073006849 4:0.10913841 5:-1.7388837 6:4.1427865 7:-2.5237913 8:-1.7980232 9:-1.7938614 10:-0.7432154 
1 1:0.13290782 2:0.12778382 3:0.037102396 4:-0.10757995 5:-0.35186905 6:1.3156311 7:-0.7924473 8:-0.82875226 9:-0.2282338 10:-0.13654821 
1 1:0.22714802 2:0.24212442 3:-0.21930657 4:-0.33630094 5:-0.48440124 6:1.7671798 7:0.20997866 8:-0.33559475 9:-0.61379977 10:-0.83233991 
1 1:-0.3948506 2:-0.41080292 3:0.39397786 4:-0.67400786 5:-1.7484747 6:6.2268302 7:0.071415355 8:-2.3140565 9:-2.8282038 10:-2.285805 
1 1:-0.069829365 2:-0.060311795 3:0.0076446174 4:-0.022764427 5:0.086002556 6:4.3136887 7:0.87634966 8:-0.81968507 9:-1.0906995 10:-1.4964808 
1 1:-0.57635646 2:-0.58642284 3:0.28091577 4:0.039010384 5:-1.2046029 6:3.2546426 7:-0.96987483 8:-0.86958218 9:-0.61902998 10:-0.19215377 
1 1:-0.017411944 2:-0.030961656 3:-0.1301659 4:-0.1035878 5:-0.47034068 6:2.0989336 7:-0.20359393 8:-0.34389112 9:-0.41673849 10:-0.40790757 
1 1:0.059222113 2:0.079845226 3:-0.14857022 4:-0.55605177 5:-1.0188385 6:2.0645987 7:-0.95436939 8:-0.61169789 9:-0.26747618 10:0.53880576 
1 1:0.37039168 2:0.4161707 3:0.077378987 4:-0.51651271 5:-1.1675116 6:2.3637363 7:-0.49249234 8:-0.39214101 9:-0.19690031 10:0.47900259 
1 1:0.12833542 2:0.15090969 3:0.16348772 4:-0.17138989 5:-0.1145229 6:5.5549875 7:0.54237475 8:-0.75911435 9:-0.73833336 10:-0.88722426 
1 1:-0.33064749 2:-0.32975953 3:0.57295881 4:-0.71956899 5:-1.7774761 6:5.7785038 7:-0.89680469 8:-2.3772838 9:-2.440657 10:-1.2312224 
1 1:-0.0060433568 2:-0.032973143 3:0.091876975 4:-0.1873892 5:-0.32315581 6:1.1301715 7:-0.77789182 8:-0.68809387 9:-0.13409413 10:-0.0025577189 
1 1:0.41153222 2:0.44748218 3:-0.13007932 4:-0.59738103 5:-1.0065948 6:2.2692682 7:-0.40178283 8:-0.66374653 9:0.061987883 10:0.51344889 
1 1:-0.10035412 2:-0.13126401 3:-0.23490831 4:-0.1838548 5:-0.36293225 6:1.6064508 7:-0.89109314 8:-0.6371112 9:-0.19164952 10:-0.072924816 
1 1:-0.55662605 2:-0.5757531 3:0.5067842 4:-0.61185472 5:-1.5931606 6:5.3974165 7:-1.1334148 8:-2.4840515 9:-2.8105022 10:-1.5719767 
1 1:-0.5880248 2:-0.59701706 3:-0.63820216 4:-0.30529281 5:-0.1706948 6:6.9302417 7:-0.23104853 8:-2.1281424 9:-2.1698256 10:-1.7528073 
1 1:-0.32103836 2:-0.36626172 3:0.79243674 4:-0.28638599 5:-1.1569259 6:4.9925188 7:-1.2077658 8:-2.0102125 9:-2.04819 10:-1.0117033 
1 1:-0.28725752 2:-0.28352507 3:-0.17852535 4:-0.16789985 5:-0.80617711 6:4.1440583 7:0.50593358 8:-0.99856224 9:-0.83734016 10:-0.53745727 
1 1:-0.10395861 2:-0.09215757 3:-0.36906324 4:-0.028711783 5:0.047752278 6:1.1082033 7:0.17944357 8:0.10977227 9:0.13446002 10:0.094957476 
1 1:-0.4045214 2:-0.40726058 3:-0.49972379 4:-0.54320846 5:-0.044895257 6:2.0363625 7:-0.80704324 8:-0.56345501 9:-0.2540148 10:0.41860845 
1 1:-0.17764102 2:-0.17112371 3:-0.1623432 4:-0.14466273 5:-0.16448641 6:3.9607204 7:-0.37870168 8:-0.91775749 9:-1.2655357 10:-1.4069043 
1 1:-0.32757961 2:-0.30978364 3:-0.79938865 4:-0.58351981 5:0.33720944 6:-0.49001985 7:0.80994264 8:0.91884302 9:-0.36118539 10:-1.1452208 
1 1:-0.66260174 2:-0.66946202 3:-0.20338586 4:-0.75796131 5:-0.39423333 6:6.0083686 7:-0.10275848 8:-1.3642713 9:-1.4545607 10:-1.3594701 
1 1:-0.12591998 2:-0.13757719 3:-0.12345977 4:-0.1108971 5:-0.30666275 6:1.7344991 7:-0.84471431 8:-0.65185859 9:-0.18216771 10:-0.13189473 
1 1:-0.96942639 2:-0.96038307 3:-1.0404486 4:-1.311922 5:-0.37637817 6:6.479219 7:-0.053937994 8:-2.3958654 9:-2.3146173 10:-2.2458597 
1 1:0.31324198 2:0.3227337 3:-0.22121482 4:-0.45062112 5:-0.54607195 6:1.317658 7:-0.80882096 8:-0.7840661 9:-0.2562696 10:-0.0084806201 
1 1:-0.11943383 2:-0.11117949 3:0.68664142 4:0.054332986 5:-1.2047142 6:2.8389171 7:-1.1217653 8:-0.79468629 9:-0.58215914 10:-0.15704799 
1 1:-0.10649913 2:-0.098061249 3:-0.066960255 4:-0.14588028 5:-0.41525232 6:1.9031871 7:0.096743473 8:-0.16847537 9:0.61102501 10:0.093908837 
0.0681306106818732 1:-0.23043736 2:-0.30647831 3:1.6728103 4:4.2856431 5:4.230383 6:-4.4170019 7:-4.0435097 8:-1.2345301 9:-0.32714152 10:3.0232328 
1 1:-0.62770343 2:-0.64217292 3:-0.26889001 4:-0.5357656 5:1.8767551 6:6.3511769 7:-0.040257431 8:-2.1021024 9:-2.332016 10:-1.500473 
1 1:-0.4151147 2:-0.38561254 3:-0.43415797 4:-0.38448882 5:-0.089706269 6:0.9938632 7:-0.61741561 8:-0.54840763 9:-0.23326522 10:0.33024169 
1 1:0.05387374 2:0.055425699 3:0.39253112 4:0.17161948 5:-0.69023866 6:4.3143275 7:-0.8485617 8:-0.91879644 9:-0.94702606 10:-0.66544414 
1 1:-0.42496566 2:-0.4259551 3:-0.50175544 4:-0.64417025 5:0.25824994 6:2.6900045 7:-0.53195457 8:-0.81901685 9:-0.70873776 10:-0.32507062 
1 1:0.086143064 2:0.10044611 3:-0.1482581 4:-0.21277603 5:-0.73134629 6:4.3488552 7:1.6981035 8:0.065188069 9:-0.71752001 10:-0.95353928 
1 1:0.23583251 2:0.28982263 3:0.27619834 4:-0.29712667 5:-0.73790035 6:2.7791112 7:-0.48174167 8:-0.41695769 9:-0.49542628 10:-0.32532083 
1 1:-0.46880724 2:-0.47625543 3:-0.51478796 4:-0.58363179 5:0.15597246 6:2.7127101 7:-0.46903472 8:-0.63151405 9:-0.40859025 10:0.28544696 
1 1:-0.33275286 2:-0.32902481 3:-0.2736574 4:-0.26921122 5:0.52103091 6:1.4721903 7:-0.46769859 8:-0.090656811 9:0.088599742 10:0.49220672 
1 1:-0.024413743 2:-0.0070835105 3:0.053345949 4:-0.22582709 5:-0.2031822 6:6.7341807 7:0.29074836 8:-0.6070122 9:-0.56932511 10:-0.74259458 
1 1:-0.50725486 2:-0.51410108 3:-0.67428831 4:-0.426911 5:-0.53013887 6:2.035538 7:0.47428764 8:-0.10935698 9:-0.26149376 10:-0.33819417 
1 1:-0.64331291 2:-0.6623405 3:-0.18601292 4:-0.60614487 5:-0.84053329 6:5.6685074 7:0.11407591 8:-1.2904486 9:-1.3813455 10:-1.3403016 
1 1:0.65783973 2:0.68377521 3:0.023443353 4:-0.55633561 5:-1.1645656 6:2.2782746 7:-0.70920264 8:-0.48186153 9:-0.2152703 10:0.2670973 
1 1:0.021170408 2:-0.0051515591 3:-0.061423592 4:0.24960844 5:0.64960957 6:-2.0874132 7:-0.3424995 8:-1.0224029 9:-0.885632 10:-0.10518377 
1 1:-0.056145418 2:-0.048752826 3:-0.041027092 4:-0.26779709 5:-0.84029758 6:6.6110538 7:2.0446316 8:-0.44770449 9:-1.008546 10:-1.3300108 
1 1:0.34675675 2:0.32953107 3:-0.33415615 4:-0.30134119 5:-0.6765501 6:2.3506113 7:-0.46096051 8:-0.62532993 9:-0.30727613 10:0.009279525 
1 1:0.011876031 2:0.020025449 3:-0.066979955 4:-0.31238078 5:1.1298488 6:-1.758391 7:-1.0419816 8:-0.20788529 9:-0.00453362 10:0.44322845 
1 1:-0.16655671 2:-0.17397448 3:-0.35564389 4:-0.21304845 5:-0.29627737 6:4.9122641 7:-0.24847582 8:-1.9994461 9:-1.2222402 10:-1.3476883 
1 1:0.42706731 2:0.34231379 3:-0.68205127 4:-0.49884646 5:0.13494737 6:6.7425295 7:0.46138745 8:-1.5851119 9:-1.6859783 10:-1.6619085 
1 1:-0.14599555 2:-0.15779159 3:-0.18029601 4:-0.13084428 5:-0.32237487 6:1.4210263 7:-0.92102814 8:-0.51327211 9:-0.13109469 10:-0.075092468 
1 1:-0.076759346 2:-0.078578178 3:-0.085213004 4:-0.2555743 5:-0.38838125 6:3.9568775 7:1.2789002 8:-0.43641382 9:-0.77257918 10:-1.0064054 
1 1:-0.021251642 2:-0.028836383 3:-0.048158128 4:-0.23886327 5:-0.18181823 6:5.8760419 7:0.90079963 8:-0.63412777 9:-0.59254908 10:-0.71747343 
1 1:0.092936841 2:0.078555036 3:0.11090912 4:-0.29055297 5:-0.14325362 6:6.3015233 7:0.54608426 8:-0.93450324 9:-0.89006997 10:-1.0346518 
1 1:0.16045399 2:0.16643498 3:0.13088812 4:-0.2290741 5:-0.71306943 6:5.163366 7:1.8234843 8:-0.40090991 9:-0.87426849 10:-1.2550176 
1 1:-0.26564072 2:-0.2704442 3:-0.39993015 4:-0.53209807 5:0.0098218249 6:2.2371078 7:-0.77356527 8:-0.6559081 9:-0.49234129 10:-0.12822027 
1 1:-0.38191573 2:-0.38252489 3:-0.42899029 4:-0.54055195 5:0.53265606 6:3.13198 7:-0.40340974 8:-0.75896127 9:-0.65050095 10:-0.293934 
1 1:-0.22849663 2:-0.23195999 3:-0.19316695 4:-0.16482638 5:-0.15963959 6:-2.9325182 7:-1.3126993 8:0.050706227 9:0.20126544 10:0.47883608 
1 1:0.27501678 2:0.24814231 3:0.095891995 4:-0.092981228 5:-0.33091772 6:1.0932496 7:-0.91104578 8:-0.69855908 9:-0.21859311 10:-0.1518011 
1 1:-0.49883595 2:-0.53298232 3:-0.047257821 4:-0.24079242 5:-0.86588688 6:4.9969486 7:0.14146141 8:-1.2328054 9:-1.2553305 10:-1.0681075 
1 1:0.45042178 2:0.46778101 3:0.59230442 4:0.29611247 5:-0.49164654 6:3.8855401 7:0.5572197 8:0.73525046 9:0.030901975 10:-1.5806632 
1 1:-0.30686782 2:-0.31130113 3:-0.37103011 4:-0.39024701 5:0.079116254 6:0.83949208 7:-1.0401073 8:-0.3650751 9:-0.077901891 10:0.49124452 
1 1:-0.12876893 2:-0.15671461 3:-0.22634949 4:-0.21285773 5:-0.44263753 6:1.5400312 7:-0.78389655 8:-0.74021906 9:-0.1800036 10:-0.088260098 
1 1:-0.070198169 2:-0.085370915 3:-0.15241871 4:-0.11818051 5:-0.2353877 6:1.0789959 7:-0.84247979 8:-0.56820293 9:-0.081067975 10:-0.068384351 
1 1:-0.4441707 2:-0.44768273 3:-0.43101378 4:-0.26872068 5:-0.27030856 6:1.0861779 7:0.22337042 8:-0.0055063372 9:-0.13053142 10:0.027162264 
1 1:-0.10089251 2:-0.078988747 3:0.1046103 4:-0.28368778 5:-0.083480014 6:5.6462282 7:0.49653951 8:-0.83812926 9:-0.87110428 10:-0.91951235 
1 1:-0.55730698 2:-0.56229485 3:-0.43493743 4:-0.25081253 5:-0.35538151 6:5.3775201 7:-0.56799726 8:-1.7973835 9:-1.2650659 10:-1.39725 
1 1:-0.018152105 2:-0.011072468 3:-0.49095827 4:-0.53767338 5:-0.14809654 6:6.0163855 7:0.3611308 8:-1.5079803 9:-1.5837275 10:-1.3805169 
1 1:-0.16301239 2:-0.14823779 3:-0.4959075 4:-0.21600572 5:-0.12794049 6:1.189881 7:0.22263476 8:0.096794875 9:0.097106658 10:0.16252177 
1 1:0.18196462 2:0.16400309 3:-0.31565903 4:-0.49670842 5:-0.73137492 6:2.5519266 7:0.21552239 8:-0.55773063 9:-0.49518585 10:-0.51834108 
1 1:0.24011815 2:0.23328327 3:0.0066161853 4:-0.13525285 5:-0.43187881 6:1.6126676 7:-0.91885848 8:-0.71915492 9:-0.18052211 10:-0.17370244 
1 1:0.11441485 2:0.14557348 3:0.18212054 4:-0.40449968 5:-0.99763564 6:2.363509 7:-2.374922 8:-0.74204282 9:-0.32610915 10:-0.20061435 
1 1:-0.21468287 2:-0.21435663 3:-0.18712073 4:-0.15354911 5:-0.17341294 6:5.7505576 7:0.36841833 8:-0.78737165 9:-0.80985787 10:-0.90549571 
1 1:0.11740828 2:0.13121845 3:0.1449551 4:-0.27468588 5:-0.66942403 6:2.5369003 7:0.36534602 8:-0.50673567 9:-0.53255999 10:-0.38189992 
0.9458548130041819 1:-0.075093786 2:-0.064984446 3:0.39628231 4:0.65571831 5:1.5724767 6:4.8797257 7:-0.43684581 8:-0.57937801 9:-0.67079308 10:-1.5239245 
1 1:-0.054013222 2:-0.05216274 3:-0.10397389 4:-0.2930236 5:-0.59325293 6:3.5253668 7:0.41375747 8:-0.45264879 9:-0.53774564 10:-0.575413 
1 1:0.06666768 2:0.039910276 3:-0.0038366794 4:-0.33948734 5:-0.1481916 6:6.1214423 7:0.10774063 8:-0.61868715 9:-0.62429605 10:-0.82335973 
1 1:-0.51964564 2:-0.53320052 3:-0.46387589 4:-0.27991286 5:-0.39238465 6:5.4285106 7:-0.12199715 8:-1.9353266 9:-1.2828764 10:-1.4318722 
1 1:-0.058824961 2:-0.042702529 3:0.090063846 4:-0.23357092 5:-0.20668578 6:6.414478 7:0.1483002 8:-0.90098466 9:-0.89782599 10:-1.021271 
1 1:-0.25080576 2:-0.25171173 3:-0.31528618 4:-0.44097081 5:0.14925687 6:1.5180245 7:-0.61608508 8:-0.72241542 9:-0.56100094 10:-0.053982187 
1 1:0.49283014 2:0.51417291 3:0.15661224 4:-0.14033873 5:0.21446192 6:2.7477531 7:-0.64115562 8:-0.53295126 9:-0.69717184 10:-0.60165497 
1 1:-0.26055231 2:-0.26488452 3:-0.2461931 4:-0.21347205 5:-0.33779614 6:3.1339875 7:0.43548922 8:-0.35287543 9:-0.43884082 10:-0.46724741 
1 1:-0.22090524 2:-0.22706827 3:-0.40122854 4:-0.56035043 5:0.19688319 6:3.4236763 7:0.0098411837 8:-0.80448584 9:-0.77050818 10:-0.55255875 
0.06262156695323691 1:-2.1073994 2:-2.1327037 3:-1.6389943 4:-0.4265434 5:2.3786779 6:-7.4678484 7:-5.5599692 8:1.1671425 9:2.1859821 10:3.1678557 
1 1:0.082252658 2:0.079522254 3:0.051251557 4:-0.31250795 5:-0.036416889 6:5.7570244 7:0.69358856 8:-0.907098 9:-0.84205238 10:-0.89330784 
1 1:-0.45864921 2:-0.45793298 3:-0.47600449 4:-0.50547746 5:-0.037159284 6:1.3574506 7:-0.61556539 8:-0.45461918 9:-0.1500807 10:0.36811498 
1 1:-0.3682952 2:-0.3777953 3:0.3538167 4:0.15225004 5:-1.0195896 6:3.1344363 7:-1.0430125 8:-0.68068133 9:-0.45699395 10:0.024007138 
1 1:-0.41704995 2:-0.42643674 3:0.051665783 4:-0.37432294 5:-1.2239746 6:4.8376146 7:0.090601989 8:-0.87795948 9:-0.75733206 10:-0.4967302 
1 1:-0.21774149 2:-0.21651926 3:-0.37366593 4:-0.55278958 5:0.22862349 6:2.2343468 7:-0.42361558 8:-0.83287797 9:-0.70207604 10:-0.4204042 
1 1:0.33181083 2:0.33771341 3:-0.16623151 4:0.5557975 5:-1.3944892 6:0.36319804 7:-0.55186587 8:-0.72006661 9:0.082469695 10:1.23766 
1 1:-0.29841589 2:-0.30375219 3:-0.23102732 4:-0.16921794 5:-0.39996907 6:1.439395 7:-0.72151692 8:-0.72083824 9:-0.16888572 10:-0.099504506 
1 1:-0.05505681 2:-0.063204742 3:-0.13957303 4:-0.12694665 5:-0.42190132 6:2.2533764 7:-0.080264726 8:-0.29904325 9:-0.41757592 10:-0.37454704 
1 1:0.2427868 2:0.24585969 3:-0.18066723 4:-0.33150644 5:-0.52202027 6:2.1223034 7:-0.31895169 8:-0.46034559 9:-0.47876452 10:-0.43273603 
1 1:-0.12239975 2:-0.14406209 3:0.10123909 4:0.55050589 5:1.2283625 6:-2.0584173 7:0.10935231 8:-0.31763518 9:-0.94683726 10:-0.67294365 
1 1:-0.23000412 2:-0.25572563 3:0.34984623 4:-0.12423847 5:-1.368443 6:3.6503097 7:-0.96689473 8:-0.63510192 9:-0.52214335 10:-0.11236645 
1 1:-0.1146857 2:-0.12288956 3:-0.15797385 4:-0.17338286 5:-0.31849354 6:1.2239869 7:-0.85271468 8:-0.60811853 9:-0.11492297 10:-0.054857495 
1 1:-0.029604808 2:-0.03049966 3:-0.069065704 4:-0.059993662 5:-0.29320922 6:1.8472026 7:0.20322078 8:-0.079735944 9:-0.086345646 10:0.037083024 
1 1:0.077353292 2:0.083945437 3:-0.045381613 4:-0.17865687 5:-0.3969579 6:1.8744245 7:-0.87861279 8:-0.70029699 9:-0.23831277 10:-0.2058351 
1 1:0.31831705 2:0.30814552 3:0.14692995 4:0.052157881 5:-0.3788824 6:5.2471935 7:2.0396517 8:0.72765365 9:0.11279771 10:-0.68089815 
1 1:-0.060932636 2:-0.05590291 3:-0.020883523 4:-0.27226481 5:-0.1508227 6:6.204524 7:0.46995803 8:-0.58571006 9:-0.5735315 10:-0.73087645 
1 1:-1.0097093 2:-1.041167 3:0.14499086 4:-0.87414836 5:-1.7211389 6:5.178875 7:-1.1546786 8:-2.2717855 9:-2.0248657 10:-0.65095827 
1 1:0.075524152 2:0.076196286 3:-0.094884646 4:-0.10549717 5:1.2755685 6:1.5990412 7:0.032567445 8:-0.77021603 9:-0.82502816 10:-0.58401282 
1 1:1.194637 2:1.3987118 3:0.19370213 4:-0.82281261 5:-0.58606137 6:5.5716562 7:0.79262317 8:-1.5029717 9:-1.4452918 10:-1.5159217 
1 1:0.51864861 2:0.53130051 3:0.24594278 4:0.25140473 5:-0.24930736 6:4.7173448 7:2.2533172 8:1.0554505 9:0.31096022 10:-0.28685089 
1 1:0.31472061 2:0.29978979 3:0.061141424 4:-0.1872973 5:-0.42508335 6:1.4607301 7:-1.0343797 8:-0.68773099 9:-0.15600991 10:-0.11890293 
1 1:0.046572014 2:0.041130307 3:-0.12562924 4:-0.36777283 5:-0.044374906 6:4.5434949 7:0.25630867 8:-0.72636224 9:-1.046563 10:-1.119598 
1 1:-0.48890088 2:-0.54994986 3:0.4176967 4:-0.45470258 5:-1.5820627 6:6.0563414 7:-0.29788346 8:-2.2285157 9:-2.4116628 10:-1.4876339 
1 1:0.24409637 2:0.22251413 3:0.073163598 4:-0.14135263 5:-0.25648323 6:1.1011215 7:-0.84310254 8:-0.70347518 9:-0.13980013 10:-0.14299274 
1 1:0.10245062 2:0.16281778 3:-0.035093673 4:-0.56042727 5:-0.92912236 6:1.929809 7:-0.52658098 8:-0.58200702 9:-0.38991518 10:0.23808779 
1 1:-0.12739431 2:-0.15645311 3:-0.18753687 4:-0.15263677 5:-0.31765453 6:1.3865291 7:-0.85047039 8:-0.61052325 9:-0.1837668 10:-0.13644838 
1 1:-0.18573609 2:-0.1761368 3:-0.36453205 4:-0.59994879 5:0.099487212 6:7.2073439 7:1.473605 8:-1.5436205 9:-2.3229751 10:-2.4879153 
1 1:0.45624204 2:0.46068648 3:0.33829088 4:0.3755826 5:-0.026189254 6:2.4524751 7:1.7912653 8:0.42710208 9:0.27695185 10:0.27955707 
1 1:-0.21900595 2:-0.21638092 3:-0.18248201 4:-0.16393356 5:-0.40768834 6:1.6444787 7:-0.90093349 8:-0.63939378 9:-0.13531886 10:-0.03799413 
1 1:0.11633062 2:0.12766218 3:-0.40462145 4:-0.40278247 5:-0.57491909 6:1.6920442 7:0.14794564 8:-0.088679646 9:-0.076938213 10:-0.098121681 
1 1:0.49892222 2:0.54385238 3:0.20121424 4:-0.16460976 5:-0.83521572 6:2.3081269 7:0.012202292 8:-0.29939044 9:-0.31249699 10:-0.29412303 
1 1:0.050341781 2:0.04090066 3:0.066116088 4:-0.25483662 5:0.027155161 6:4.9411341 7:0.32496296 8:-0.45084128 9:-0.43903827 10:-0.59311578 
1 1:-0.94899152 2:-0.96324314 3:-1.018707 4:-0.60961227 5:-0.73567509 6:1.738413 7:0.04957163 8:-0.27250032 9:-0.31395255 10:-0.31510207 
0.07028931321688935 1:-0.79284079 2:-0.78042562 3:-0.6057582 4:-0.72337901 5:-1.1445549 6:-7.3657711 7:-8.6836579 8:-2.0761906 9:1.467302 10:2.9117091 
0.543027305379252 1:1.6719935 2:1.6924635 3:0.66575065 4:0.020924539 5:0.52193559 6:3.2941778 7:1.7158723 8:-1.2626432 9:-1.8123074 10:-1.8223375 
1 1:-0.12005066 2:-0.12282942 3:-0.17924233 4:-0.37442434 5:-0.63152306 6:3.3873835 7:0.45502582 8:-0.50936709 9:-0.60357722 10:-0.77209976 
1 1:-0.10143517 2:-0.078428085 3:-0.13679285 4:-0.31315631 5:-0.56125139 6:2.1961513 7:0.49912159 8:-0.20198657 9:-0.24781427 10:-0.16694097 
1 1:0.052898225 2:0.059905489 3:0.056473798 4:0.11974838 5:0.10468778 6:4.9212164 7:1.0873916 8:-0.97340515 9:-1.5214308 10:-2.1796808 
1 1:-0.040527467 2:-0.093112388 3:0.31207497 4:1.0130145 5:-0.27652498 6:3.273157 7:-1.4670893 8:-0.57776191 9:-0.40518045 10:-0.42897621 
1 1:-0.51026359 2:-0.51214364 3:-0.38901302 4:-0.29869633 5:-0.19380925 6:5.4588866 7:0.90416969 8:-2.3602733 9:-1.2909409 10:-1.4105434 
1 1:-0.091215781 2:-0.072968308 3:-0.25451564 4:-0.51696095 5:-0.72127773 6:5.584885 7:0.32376583 8:-0.64457171 9:-0.82822087 10:-1.1107901 
1 1:0.0035330112 2:0.0023550503 3:-0.00093785019 4:0.00065063336 5:-0.274681 6:2.4176997 7:0.2860868 8:-0.19956217 9:-0.12569437 10:-0.079696812 
1 1:0.70498281 2:0.74718483 3:0.53925362 4:0.72922775 5:0.31510654 6:-1.3380761 7:-0.4865287 8:0.69179394 9:0.48113215 10:0.65794896 
1 1:-0.26231825 2:-0.22127967 3:-0.09928368 4:-0.07523106 5:-1.0098357 6:4.6478744 7:-0.040922051 8:-0.90208536 9:-0.76695092 10:-0.4775947 
1 1:0.19759752 2:0.19244567 3:0.064718333 4:-0.20735554 5:-0.44771856 6:1.9921854 7:-0.7507971 8:-0.85162598 9:-0.30983533 10:-0.22353252 
1 1:0.70507633 2:0.77043764 3:0.68686302 4:-0.28659181 5:-0.76904267 6:4.4690324 7:0.33796569 8:-1.9790436 9:-0.78287602 10:-0.24476666 
1 1:-0.51346293 2:-0.51107716 3:-0.54067269 4:-0.66547343 5:0.5776158 6:3.5119118 7:-0.23294419 8:-0.88951843 9:-0.80920375 10:-0.51548903 
0.1096095615716414 1:-1.973503 2:-1.9721668 3:-2.3240525 4:-1.281615 5:-0.27904221 6:2.6943965 7:-6.5886773 8:-5.2703649 9:1.031728 10:2.2565508 
1 1:2.5988838 2:2.6435923 3:1.8764738 4:0.66343357 5:-0.73381037 6:1.8928154 7:-1.6828753 8:-0.62220051 9:-0.66834347 10:-0.25473799 
1 1:0.18296083 2:0.18035539 3:0.13608241 4:-0.10591354 5:-0.31688221 6:1.4770713 7:-0.96384436 8:-0.73327907 9:-0.22792553 10:-0.063395343 
1 1:-0.048289854 2:-0.062367137 3:-0.050322982 4:-0.28960428 5:-0.17124321 6:6.2212369 7:0.46671244 8:-0.46872261 9:-0.52334944 10:-0.67309199 
1 1:-0.29775738 2:-0.32575017 3:-0.30994783 4:-0.65027265 5:1.5852726 6:6.3885562 7:-0.20686404 8:-2.3106097 9:-2.5883934 10:-1.4390585 
1 1:-0.54899249 2:-0.55853364 3:-0.42500806 4:-0.2817068 5:-0.092867412 6:5.3185041 7:0.72874441 8:-2.2006949 9:-1.210045 10:-1.306056 
1 1:-0.19628139 2:-0.21082532 3:-0.22485892 4:-0.24769182 5:-0.44147195 6:1.7532481 7:-0.92552654 8:-0.69692421 9:-0.19579908 10:-0.11978929 
1 1:0.25661548 2:0.28884758 3:0.60996568 4:-0.018091661 5:0.13805912 6:-3.4775977 7:0.233057 8:-0.52363322 9:-0.96557249 10:0.36963369 
1 1:-0.010481009 2:-0.006398084 3:0.013871375 4:-0.14461853 5:1.3187433 6:-2.2564255 7:-1.0923947 8:-0.3913665 9:-0.38632092 10:-0.1593641 
1 1:-0.31291479 2:-0.31838625 3:0.1618914 4:0.87465981 5:0.91417533 6:1.816446 7:0.40740905 8:0.22970371 9:1.3503639 10:1.4203886 
1 1:0.22085816 2:0.25919221 3:-0.29421177 4:-0.43838532 5:-0.55176525 6:4.7360513 7:0.1043328 8:-0.65882077 9:-0.76163196 10:-0.99613195 
0.0197924319628744 1:-0.37100398 2:-0.37426092 3:-1.1225413 4:-2.1537836 5:-6.0975302 6:-7.2989171 7:-1.6337043 8:0.78051353 9:2.0743456 10:3.3018124 
1 1:0.18218875 2:0.1739865 3:0.067273095 4:0.17084575 5:-0.27348647 6:3.3634341 7:1.4291846 8:-0.41564104 9:0.35319586 10:0.08330568 
1 1:0.25946075 2:0.25941156 3:0.077616772 4:-0.19340907 5:-0.43118742 6:1.411247 7:-0.85880285 8:-0.82248097 9:-0.23376216 10:-0.12115994 
0.003380451761286969 1:-0.12912161 2:-0.1458558 3:-0.60540931 4:-0.52747603 5:-0.043055801 6:10.077866 7:9.5562648 8:-0.54122481 9:-2.1042406 10:-2.8622462 
1 1:-0.28006496 2:-0.28765756 3:-0.68150218 4:-0.74665056 5:-0.95334921 6:2.4626863 7:-0.37797399 8:-0.72704207 9:-0.77540774 10:-0.71936853 
1 1:-0.19878672 2:-0.20898924 3:-0.20594925 4:-0.14335676 5:-0.28060752 6:1.2394041 7:-0.73010345 8:-0.62187049 9:-0.12343482 10:-0.018818504 
1 1:-0.052193899 2:-0.056034882 3:-0.077265716 4:-0.31947716 5:-0.2463435 6:6.4402605 7:0.37770583 8:-0.63542323 9:-0.63203035 10:-0.80395678 
1 1:-0.10023232 2:-0.086310081 3:-0.10928534 4:-0.11514986 5:-0.34416571 6:1.0688588 7:-0.14363549 8:0.026064951 9:0.25077213 10:0.32536544 
1 1:-0.16822235 2:-0.16426489 3:-0.20070652 4:-0.34991407 5:0.58769017 6:2.4190468 7:-0.087527154 8:-0.39044683 9:-0.40174866 10:-0.027804292 
1 1:0.20732572 2:0.20207784 3:0.11257151 4:-0.14514499 5:-0.31197888 6:1.3751126 7:-0.88966659 8:-0.64750496 9:-0.19096559 10:-0.15492796 
1 1:0.3761971 2:0.38142522 3:0.12184646 4:-0.2276725 5:-0.9648421 6:1.7388833 7:-1.1001387 8:-0.61962514 9:-0.35970072 10:0.11321822 
1 1:-0.28101875 2:-0.28767606 3:-0.2553454 4:-0.26363801 5:-0.44753817 6:1.7549637 7:-0.89530731 8:-0.70792046 9:-0.17675315 10:-0.11301084 
1 1:-0.84977822 2:-0.86519148 3:-0.86420151 4:-0.72594118 5:-1.0792726 6:2.8913375 7:0.31545861 8:-1.0810692 9:0.092920005 10:-0.099466703 
1 1:0.012357526 2:-0.0048286838 3:-0.036439781 4:-0.37956773 5:-0.24834666 6:6.3705279 7:0.46870321 8:-0.86984358 9:-0.85026185 10:-1.0041767 
1 1:-0.51364489 2:-0.51599648 3:-0.54677224 4:-0.71170497 5:0.53720151 6:3.3343594 7:-0.022713319 8:-0.81245347 9:-0.79116249 10:-0.50298874 
1 1:-0.38026487 2:-0.38043407 3:-0.48239649 4:-0.51353803 5:-0.079894894 6:1.1734488 7:-0.88734322 8:-0.49366414 9:-0.16464348 10:0.5329668 
1 1:0.25682197 2:0.2533932 3:0.31672607 4:0.28220746 5:0.24330417 6:4.8131053 7:0.74185487 8:-0.93326035 9:-1.2983314 10:-2.0072951 
1 1:0.032756099 2:0.034650865 3:0.026634359 4:-0.233838 5:-0.81752099 6:5.5779323 7:1.8574482 8:-0.60608019 9:-1.1252437 10:-1.3600762 
1 1:-0.65232542 2:-0.67332718 3:-0.19386252 4:-0.59362583 5:-0.46740116 6:5.7541731 7:0.14087065 8:-1.4273044 9:-1.5221191 10:-1.502581 
1 1:-0.14451255 2:-0.13053313 3:0.13275577 4:-0.17601268 5:0.044163348 6:6.1013993 7:0.57387647 8:-0.84843898 9:-0.80970464 10:-1.0584231 
1 1:-0.27167181 2:-0.27888442 3:-0.32285557 4:-0.28660692 5:-0.28621993 6:6.8234784 7:0.86152772 8:-0.89731531 9:-0.87302495 10:-0.91206528 
1 1:-0.26463743 2:-0.26881318 3:-0.37660214 4:-0.51097119 5:0.38298279 6:1.6847199 7:-0.41015224 8:-0.51354409 9:-0.17629636 10:0.45420627 
1 1:0.49045737 2:0.50575728 3:0.17297101 4:-0.028726038 5:0.37105842 6:3.0324657 7:0.8055639 8:-0.74676623 9:-1.0754534 10:-1.2495828 
1 1:-0.10497645 2:-0.072818384 3:-0.026881905 4:-0.1297282 5:-0.058228282 6:2.3752527 7:-0.55537835 8:-0.16435719 9:-0.28718275 10:-0.50182942 
1 1:-0.51163415 2:-0.54433498 3:-0.028600947 4:0.020451301 5:-0.83012411 6:2.8319227 7:-1.0895305 8:-0.66538004 9:-0.46422184 10:0.099468438 
1 1:-0.62525735 2:-0.62407438 3:-0.080747352 4:-0.52025996 5:-1.1133182 6:1.9110817 7:-1.1656205 8:-1.1803567 9:-0.21983767 10:0.30161316 
1 1:-0.84715495 2:-0.87020801 3:-0.43517235 4:-0.47584304 5:0.27182938 6:6.8015175 7:0.58093313 8:-1.7727048 9:-2.1213404 10:-2.3006362 
1 1:-0.27808619 2:-0.28420465 3:-0.18794647 4:-0.20731526 5:-0.41351526 6:1.6596264 7:-0.85888753 8:-0.67809182 9:-0.16507959 10:-0.097584834 
1 1:-0.30726341 2:-0.29437816 3:0.20107517 4:-0.061543191 5:-1.0506989 6:2.8167831 7:-1.1939207 8:-0.84314464 9:-0.67438712 10:-0.17479792 
0.06811744584440269 1:-0.055337631 2:-0.033221066 3:-0.41651371 4:-1.0608171 5:-1.8816983 6:7.7744255 7:4.638604 8:-5.0478639 9:-7.8185677 10:-3.2480131 
0.02776227383885841 1:2.7913583 2:2.8493479 3:1.0883622 4:-0.64620707 5:-1.6112299 6:5.0348191 7:-0.7414787 8:-1.878552 9:-1.9938316 10:-0.40022377 
0.05344293726706434 1:0.10381404 2:0.10829166 3:0.012510157 4:-0.27511826 5:-0.62469615 6:6.615384 7:1.8417218 8:-0.36020848 9:-0.98804732 10:-1.1631156 
1 1:0.83664569 2:0.89733648 3:0.63663944 4:-0.13174299 5:-0.78767039 6:2.1488481 7:-0.8461402 8:-0.44520113 9:-0.27830561 10:-0.49580856 
1 1:-0.21565572 2:-0.21660887 3:0.44670867 4:0.1114858 5:-0.97897531 6:3.1562338 7:-0.92086201 8:-0.62938051 9:-0.4554628 10:-0.0055414936 
1 1:-0.31166078 2:-0.31852438 3:-0.53845839 4:-0.48858055 5:-0.46492058 6:1.2843541 7:0.36848043 8:0.094915415 9:0.068230376 10:0.025731676 
0.777440286672972 1:-0.053392605 2:-0.050680256 3:-0.1569856 4:-0.19055508 5:-0.36005443 6:1.5478696 7:-0.97420386 8:-0.64319657 9:-0.1703327 10:-0.1256573 
1 1:-0.30735584 2:-0.35273329 3:0.40459797 4:-0.78182488 5:-1.8977605 6:6.0738564 7:-0.48045182 8:-2.5908586 9:-2.9430334 10:-1.8180677 
1 1:0.52742736 2:0.56819181 3:0.31783434 4:-0.40222151 5:-0.86911132 6:2.1524024 7:-0.6943463 8:-0.49327797 9:-0.078020632 10:-0.14627959 
1 1:0.061880374 2:0.052737682 3:0.046767146 4:-0.33307735 5:-0.12889817 6:5.9764477 7:0.83280985 8:-0.83753055 9:-0.8560542 10:-0.96536948 
1 1:-0.12888348 2:-0.12684852 3:-0.12233315 4:-0.08726606 5:-0.33477563 6:1.824024 7:-0.043981162 8:-0.37362274 9:-0.39409831 10:-0.37237539 
1 1:0.73698923 2:0.74340902 3:0.88144713 4:0.10038632 5:-0.67513891 6:5.9996775 7:1.2379399 8:-1.7342234 9:-1.1599423 10:-0.68436116 
1 1:-0.07010634 2:-0.044360889 3:0.5489305 4:-0.15505595 5:-1.23335 6:3.0642471 7:-1.1591682 8:-0.63165332 9:-0.42056283 10:0.0052728198 
1 1:-0.30619966 2:-0.29673402 3:-0.27753597 4:-0.21272882 5:-0.92578786 6:4.4715984 7:-0.41674528 8:-0.92340821 9:-0.77249087 10:-0.50426242 
1 1:0.03529937 2:0.026962476 3:-0.053767672 4:-0.20525488 5:-0.38652713 6:2.250682 7:-1.3843051 8:-0.68373926 9:-0.48011903 10:-0.70482476 
1 1:-0.58820628 2:-0.59327311 3:-0.63610978 4:-0.70519073 5:0.54617302 6:3.3634447 7:-0.31832821 8:-0.97503699 9:-0.93420501 10:-0.44106561 
1 1:0.59132895 2:0.59890139 3:0.44127562 4:0.15041464 5:0.34192259 6:3.7158273 7:-1.1489946 8:0.10455956 9:0.53759685 10:-0.80906302 
1 1:0.74116768 2:0.75137835 3:1.471059 4:0.63594389 5:-0.56928632 6:2.4792007 7:-0.83618313 8:-1.1767359 9:-0.56025453 10:-0.15267559 
1 1:-0.71650315 2:-0.75903278 3:-0.27984347 4:-0.55292111 5:-0.64955933 6:5.7525756 7:0.20429079 8:-1.2541693 9:-1.3738087 10:-1.2494247 
1 1:0.05981488 2:0.046902726 3:0.15868931 4:-0.30872253 5:-0.15389613 6:5.6345144 7:0.57330212 8:-0.76019175 9:-0.70387207 10:-0.94446092 
1 1:-0.37968599 2:-0.37804005 3:-0.38081834 4:-0.44034526 5:-0.55708448 6:0.94567774 7:0.13653846 8:-0.61596221 9:-0.5434577 10:-0.49078317 
1 1:0.096809602 2:0.11403802 3:0.036946947 4:-0.21776481 5:0.097930518 6:5.4234669 7:0.47014795 8:-0.63453939 9:-0.51001258 10:-0.58734029 
1 1:-0.49297684 2:-0.49774158 3:-0.39875102 4:-0.25123881 5:-0.35710696 6:5.0330463 7:-0.034273083 8:-1.8166764 9:-1.2064846 10:-1.4102812 
1 1:-0.00082458545 2:0.0025329442 3:0.015686225 4:-0.33004069 5:-0.052450083 6:5.9075926 7:0.18971054 8:-0.97293523 9:-0.96800639 10:-1.1221003 
1 1:-0.19424037 2:-0.21085235 3:-0.38239306 4:-0.33640358 5:-0.37007234 6:4.3132267 7:-0.55282071 8:-2.061688 9:-1.2041572 10:-1.2667914 
1 1:-0.21567714 2:-0.22258794 3:-0.20947167 4:-0.15350675 5:-0.33683128 6:1.2400349 7:-0.91975913 8:-0.5439912 9:-0.12016606 10:-0.026798419 
1 1:-0.080694696 2:-0.073386491 3:-0.10983076 4:-0.3671125 5:-0.54399193 6:3.3318124 7:0.33726856 8:-0.53613543 9:-0.7431547 10:-0.80904211 
1 1:-0.043120368 2:-0.042539115 3:-0.075241809 4:0.32436454 5:0.054463751 6:1.9500039 7:0.072441061 8:-0.12796472 9:-0.030393864 10:0.019025477 
1 1:-0.096971088 2:-0.098671417 3:-0.10798555 4:-0.10935431 5:-0.30278336 6:1.9023398 7:-0.1086063 8:-0.37503027 9:-0.39956707 10:-0.36014445 
1 1:0.29630123 2:0.29461431 3:0.022187715 4:-0.13696747 5:-0.39045261 6:1.3688763 7:-0.88317402 8:-0.70197512 9:-0.21318917 10:-0.1036526 
1 1:0.13974043 2:0.14508407 3:0.089055769 4:0.075696805 5:-0.2547565 6:2.1587961 7:0.38578978 8:0.41454176 9:0.040632895 10:-0.0046147998 
1 1:0.34018639 2:0.34218211 3:-0.03869054 4:-0.33084798 5:-0.42297161 6:1.0785393 7:0.15891144 8:0.17595738 9:0.21280047 10:0.2788898 
1 1:-0.22215376 2:-0.21308481 3:-0.12955168 4:-0.17414986 5:-0.38322814 6:1.4331006 7:-0.7128513 8:-0.66280409 9:-0.18046334 10:-0.088188669 
1 1:-0.27319814 2:-0.29937287 3:0.3748565 4:-0.029600964 5:-0.88457763 6:2.4516834 7:-1.2705872 8:-0.88504158 9:0.17457963 10:0.70394728 
1 1:-0.1657026 2:-0.19049258 3:-0.088325274 4:-0.020734775 5:-0.21214892 6:1.4395873 7:-0.87689248 8:-0.86503651 9:-0.49027548 10:-0.18340548 
1 1:0.30420033 2:0.35774076 3:0.14897332 4:-0.46809299 5:-0.98530677 6:2.1973412 7:-0.63852625 8:-0.34001542 9:-0.33767206 10:0.15873574 
1 1:-0.21171187 2:-0.2197236 3:-0.048670418 4:0.10037577 5:-0.022952919 6:1.7227806 7:0.60404238 8:0.2306096 9:0.43515459 10:0.19003943 
1 1:-0.29696522 2:-0.3023437 3:-0.37939114 4:-0.53806469 5:0.37079832 6:2.9199293 7:-0.27444566 8:-0.71183606 9:-0.64360657 10:-0.33064745 
1 1:-0.31197167 2:-0.34574789 3:-0.27705677 4:-0.15872911 5:0.18817767 6:-2.6412169 7:1.2937695 8:-0.69076286 9:-0.58632055 10:0.55545126 
1 1:-0.28896295 2:-0.28789869 3:-0.28166051 4:-0.5314977 5:-0.87679563 6:3.5256972 7:0.43625284 8:-0.45484804 9:-0.46567627 10:-0.42685224 
1 1:0.094625513 2:0.075392939 3:-0.026686308 4:-0.30055087 5:-0.070018976 6:6.0240108 7:0.52526714 8:-0.62237599 9:-0.62345487 10:-0.78791807 
1 1:-0.18921768 2:-0.17926268 3:-0.15283889 4:-0.16501537 5:-0.44727531 6:1.7607498 7:-0.43553195 8:-0.44865187 9:-0.49122705 10:-0.39402499 
1 1:-0.43689102 2:-0.43723882 3:-0.57701023 4:-0.65023805 5:0.055720755 6:3.1928506 7:-0.42279702 8:-0.83432858 9:-0.67233825 10:-0.20249696 
1 1:0.74778445 2:0.70886885 3:0.53982424 4:0.27196433 5:0.70696775 6:3.0297294 7:0.15049573 8:-0.088877851 9:-0.043693452 10:-0.0073657167 
1 1:-0.55363353 2:-0.57572163 3:0.55670233 4:-0.60149399 5:-1.8444382 6:6.3475902 7:-0.35931142 8:-2.7194819 9:-2.9302734 10:-1.6159895 
1 1:-0.39400003 2:-0.39367365 3:-0.48503117 4:-0.62521314 5:0.29311413 6:2.7275452 7:-0.50624537 8:-0.80298489 9:-0.69320791 10:-0.19936839 
1 1:0.26776571 2:0.28430801 3:0.035912126 4:-0.17350689 5:-0.65668873 6:2.0842191 7:-0.12471686 8:-0.29026436 9:-0.28291966 10:-0.19238697 
1 1:-0.47406797 2:-0.46685146 3:-0.11906397 4:-0.55375805 5:-1.372718 6:4.0487461 7:0.14403462 8:-1.0004234 9:-0.99398704 10:-0.6043457 
1 1:-0.13628576 2:-0.15083169 3:0.19833812 4:0.12429751 5:-0.21249935 6:4.0443349 7:1.1944946 8:-0.52076887 9:-0.78111566 10:-1.2346725 
0.9056236230187561 1:0.73808281 2:0.75840367 3:0.28809917 4:-0.17213383 5:0.41934046 6:5.1221834 7:0.64815044 8:-0.90305348 9:-1.3050972 10:-1.9064095 
1 1:-0.14638661 2:-0.11368495 3:0.086423087 4:-0.28214175 5:0.01601088 6:6.0382545 7:0.033690709 8:-0.68051988 9:-0.63140954 10:-0.8145679 
1 1:-0.086188599 2:-0.098999779 3:-0.079190525 4:-0.32527014 5:-0.15041376 6:6.0227868 7:0.83775852 8:-0.70428625 9:-0.70936679 10:-0.76339236 
1 1:-0.38204219 2:-0.38100266 3:-0.42647214 4:-0.581149 5:0.44122817 6:3.2696255 7:-0.18934423 8:-0.78627638 9:-0.6606358 10:-0.30727678 
1 1:-0.34243701 2:-0.35057778 3:-0.44942472 4:-0.54702495 5:0.22362548 6:3.1402506 7:-0.36224665 8:-0.69708876 9:-0.51986744 10:-0.077178009 
1 1:-0.22274942 2:-0.22139972 3:-0.38337519 4:-0.46989319 5:-0.20523374 6:2.6279585 7:-0.57351005 8:-0.68567695 9:-0.5313091 10:-0.13774618 
1 1:-0.088615767 2:-0.10174342 3:-0.17466212 4:-0.029110288 5:0.30879174 6:3.2099012 7:0.96772878 8:-0.84990695 9:-1.2234762 10:-1.1939417 
1 1:0.15937877 2:0.16311627 3:0.052982982 4:-0.17913244 5:-0.42899665 6:1.320788 7:-1.03554 8:-0.67974249 9:-0.1042536 10:-0.072476373 
1 1:-0.21629771 2:-0.20771393 3:0.093201209 4:-0.30817674 5:-0.87479229 6:3.1946399 7:-1.1973714 8:-0.7151728 9:-0.46021203 10:-0.035672117 
1 1:-0.37779644 2:-0.37814559 3:-0.45855548 4:-0.55704459 5:0.4313136 6:2.8925449 7:-0.21200303 8:-0.63185238 9:-0.43131262 10:0.0071058723 
